#Intensity_unit=cps
#Attenuator_coefficient=1.0000
3.0000 11280.7300
3.0100 11826.5325
3.0200 13138.2075
3.0300 13434.0725
3.0400 12061.6775
3.0500 11396.4925
3.0600 12289.1975
3.0700 11384.2750
3.0800 12273.4725
3.0900 12982.0425
3.1000 12307.2975
3.1100 12187.8925
3.1200 12657.2150
3.1300 11909.9650
3.1400 11287.1925
3.1500 11647.1250
3.1600 11395.1300
3.1700 10806.1175
3.1800 11465.3500
3.1900 11128.9200
3.2000 10987.5900
3.2100 11349.1975
3.2200 9982.5250
3.2300 10497.9950
3.2400 11286.6300
3.2500 11549.1725
3.2600 11004.3975
3.2700 9762.1725
3.2800 10259.0750
3.2900 10172.3750
3.3000 11470.2250
3.3100 11215.2850
3.3200 11135.3800
3.3300 11195.3600
3.3400 10725.0975
3.3500 11192.1650
3.3600 11673.9125
3.3700 12325.6000
3.3800 12651.9550
3.3900 12517.7450
3.4000 11556.0925
3.4100 11536.6825
3.4200 12733.8550
3.4300 12091.1100
3.4400 11995.8075
3.4500 11630.5950
3.4600 12238.4125
3.4700 11504.7900
3.4800 11193.9075
3.4900 10712.6225
3.5000 11010.1875
3.5100 10866.5950
3.5200 9786.1000
3.5300 9662.1550
3.5400 10023.1950
3.5500 9938.6500
3.5600 9876.8025
3.5700 10691.3425
3.5800 10654.7700
3.5900 10783.5800
3.6000 10317.6975
3.6100 10725.3950
3.6200 10070.7450
3.6300 9444.6850
3.6400 9043.2875
3.6500 11209.4800
3.6600 10709.2675
3.6700 9884.7175
3.6800 9317.2125
3.6900 10340.5050
3.7000 10596.5025
3.7100 10030.6500
3.7200 10071.2400
3.7300 10427.9375
3.7400 10882.4800
3.7500 11085.8175
3.7600 10362.0100
3.7700 11207.1925
3.7800 11442.4775
3.7900 10625.8575
3.8000 11118.3575
3.8100 10945.0375
3.8200 11418.4600
3.8300 11860.6400
3.8400 11718.3650
3.8500 13633.8575
3.8600 14235.8825
3.8700 14551.8075
3.8800 15808.2250
3.8900 15824.2100
3.9000 16732.8175
3.9100 17520.4175
3.9200 17433.4950
3.9300 18157.3225
3.9400 18448.3075
3.9500 19746.3250
3.9600 22218.3500
3.9700 23227.6675
3.9800 24104.3075
3.9900 26416.1600
4.0000 27902.0575
4.0100 30485.9675
4.0200 33060.7425
4.0300 34182.9650
4.0400 36710.7200
4.0500 39813.9075
4.0600 44931.2925
4.0700 47958.2300
4.0800 51664.7400
4.0900 57822.0550
4.1000 63911.3175
4.1100 69333.6500
4.1200 76267.8650
4.1300 83378.2150
4.1400 90094.5975
4.1500 100533.9700
4.1600 111840.3850
4.1700 124175.5225
4.1800 140615.0600
4.1900 155982.0475
4.2000 172466.1325
4.2100 186968.5825
4.2200 202720.3475
4.2300 223897.7225
4.2400 247945.6950
4.2500 272207.9650
4.2600 300330.5425
4.2700 321492.5375
4.2800 345943.7825
4.2900 359166.6375
4.3000 372387.8575
4.3100 371635.3000
4.3200 351205.6475
4.3300 318457.9425
4.3400 281197.3875
4.3500 243379.1000
4.3600 200539.5675
4.3700 163662.6575
4.3800 129870.0825
4.3900 98469.6675
4.4000 73668.0325
4.4100 56634.3975
4.4200 45155.1550
4.4300 36494.8075
4.4400 29772.2750
4.4500 25331.9175
4.4600 22414.7575
4.4700 20925.2150
4.4800 20252.8950
4.4900 20045.5700
4.5000 19180.7800
4.5100 17675.4850
4.5200 16160.1300
4.5300 16385.7525
4.5400 16253.9350
4.5500 15399.7600
4.5600 12773.5000
4.5700 12369.0000
4.5800 12539.3800
4.5900 12385.5800
4.6000 11058.0075
4.6100 10665.7900
4.6200 10434.6900
4.6300 10506.5100
4.6400 10685.0225
4.6500 10449.9000
4.6600 10556.9775
4.6700 10544.1250
4.6800 9942.9800
4.6900 9958.4050
4.7000 9437.6575
4.7100 8894.3700
4.7200 9580.2325
4.7300 9348.0700
4.7400 9393.4275
4.7500 8277.0700
4.7600 8864.4950
4.7700 9634.5375
4.7800 8367.4825
4.7900 8524.1050
4.8000 8588.4325
4.8100 8589.9350
4.8200 9230.0250
4.8300 8223.2975
4.8400 7254.0475
4.8500 7794.5200
4.8600 8004.3150
4.8700 8183.2450
4.8800 7641.9850
4.8900 6814.3025
4.9000 6314.3725
4.9100 7082.0475
4.9200 7337.4750
4.9300 7900.1275
4.9400 7391.6225
4.9500 7215.1850
4.9600 7120.0400
4.9700 7314.1600
4.9800 7374.1125
4.9900 6647.8575
5.0000 7026.1350
5.0100 6969.7250
5.0200 6693.0650
5.0300 6291.4225
5.0400 6221.7675
5.0500 6317.8175
5.0600 5868.5975
5.0700 5755.2325
5.0800 6130.1050
5.0900 6375.5050
5.1000 6684.6275
5.1100 6852.4950
5.1200 6822.7025
5.1300 6335.8900
5.1400 6542.0800
5.1500 6373.4525
5.1600 5726.0250
5.1700 5765.3875
5.1800 5283.8125
5.1900 5504.1725
5.2000 5761.3150
5.2100 5749.3250
5.2200 5678.7150
5.2300 5698.0050
5.2400 6596.0000
5.2500 6608.9275
5.2600 5885.4475
5.2700 5580.5675
5.2800 5673.6450
5.2900 5839.3725
5.3000 5563.5250
5.3100 5054.9150
5.3200 5396.9325
5.3300 6247.8875
5.3400 6119.8000
5.3500 5686.7200
5.3600 5617.7375
5.3700 5665.2250
5.3800 5192.9750
5.3900 4850.7700
5.4000 4999.2300
5.4100 5320.5550
5.4200 5612.2700
5.4300 5160.6775
5.4400 4934.7125
5.4500 4698.1075
5.4600 4914.8450
5.4700 5261.6050
5.4800 5169.3600
5.4900 4764.3075
5.5000 5019.5125
5.5100 5350.4275
5.5200 5203.0200
5.5300 4702.9875
5.5400 4634.1100
5.5500 4196.0925
5.5600 4030.4150
5.5700 4521.1000
5.5800 4726.7125
5.5900 4649.9925
5.6000 4983.9875
5.6100 5021.8550
5.6200 4614.9275
5.6300 4436.9375
5.6400 4496.4875
5.6500 4720.9875
5.6600 4417.9825
5.6700 4403.4225
5.6800 4316.9900
5.6900 4549.5225
5.7000 4278.4000
5.7100 4062.1775
5.7200 4227.3675
5.7300 4170.9650
5.7400 4320.9325
5.7500 4743.5700
5.7600 4703.9950
5.7700 4996.5550
5.7800 4877.8350
5.7900 4072.3375
5.8000 4204.8025
5.8100 4024.2000
5.8200 4100.4925
5.8300 4517.1900
5.8400 4871.5825
5.8500 4635.6950
5.8600 4086.1025
5.8700 3807.1375
5.8800 3797.1250
5.8900 4037.1125
5.9000 4346.7075
5.9100 4076.9025
5.9200 3943.2575
5.9300 4128.5900
5.9400 4038.7350
5.9500 4090.4075
5.9600 4163.8675
5.9700 3485.6175
5.9800 3721.0100
5.9900 3821.3900
6.0000 3635.6325
6.0100 3649.0350
6.0200 4462.2525
6.0300 4936.9100
6.0400 4248.2675
6.0500 3699.3875
6.0600 3819.6325
6.0700 3934.4725
6.0800 3867.5475
6.0900 3870.4225
6.1000 3878.0350
6.1100 3871.6950
6.1200 3828.4675
6.1300 3587.3025
6.1400 3571.4475
6.1500 3740.2025
6.1600 3899.5900
6.1700 3898.4450
6.1800 4060.5400
6.1900 4050.6525
6.2000 3871.1275
6.2100 3736.9375
6.2200 3269.2575
6.2300 3494.6900
6.2400 3677.4800
6.2500 3469.7875
6.2600 3775.8025
6.2700 3993.5250
6.2800 3979.0950
6.2900 4101.5750
6.3000 4257.0625
6.3100 3901.1075
6.3200 3743.1750
6.3300 3701.8975
6.3400 3682.2825
6.3500 3782.1750
6.3600 3852.7025
6.3700 4000.7750
6.3800 3734.3725
6.3900 3395.0950
6.4000 3377.0950
6.4100 3642.9775
6.4200 3976.6075
6.4300 3858.4575
6.4400 3493.3400
6.4500 3723.6050
6.4600 3372.3350
6.4700 3312.9675
6.4800 3568.6175
6.4900 3542.4350
6.5000 4008.9225
6.5100 3695.8825
6.5200 3757.7575
6.5300 3963.2675
6.5400 3828.5175
6.5500 3551.2625
6.5600 3328.8250
6.5700 3674.0250
6.5800 4033.9725
6.5900 3538.3475
6.6000 3368.6275
6.6100 3959.7700
6.6200 3850.9525
6.6300 3609.1725
6.6400 3330.0300
6.6500 3562.0850
6.6600 3361.0125
6.6700 3551.1325
6.6800 4011.6900
6.6900 3943.5300
6.7000 3362.9025
6.7100 3154.7075
6.7200 3707.1050
6.7300 3833.5575
6.7400 3591.4250
6.7500 3342.0675
6.7600 3497.1925
6.7700 3554.1425
6.7800 3405.8175
6.7900 3476.1575
6.8000 3363.6500
6.8100 3581.2000
6.8200 3697.2750
6.8300 3691.8675
6.8400 3590.3875
6.8500 3320.9775
6.8600 3126.2200
6.8700 3590.9125
6.8800 3959.7625
6.8900 3608.7300
6.9000 3428.8775
6.9100 3455.5325
6.9200 3747.9300
6.9300 3485.3600
6.9400 3508.0275
6.9500 3740.2850
6.9600 3363.4800
6.9700 3264.9375
6.9800 3674.8250
6.9900 3861.2925
7.0000 3962.4100
7.0100 4058.9275
7.0200 4482.4750
7.0300 4680.6850
7.0400 4656.5425
7.0500 4267.0325
7.0600 4070.1525
7.0700 3805.5975
7.0800 3785.4625
7.0900 3942.3900
7.1000 3501.8925
7.1100 3223.0275
7.1200 3404.7075
7.1300 3644.7950
7.1400 3706.1875
7.1500 3761.4825
7.1600 3752.6300
7.1700 3553.3675
7.1800 3378.5575
7.1900 3304.0375
7.2000 3376.0725
7.2100 3261.6450
7.2200 3011.7475
7.2300 3106.8800
7.2400 3479.4975
7.2500 3547.7100
7.2600 3308.9100
7.2700 3211.7675
7.2800 3384.5375
7.2900 3193.9225
7.3000 2923.5300
7.3100 3499.6375
7.3200 3345.5450
7.3300 3201.5700
7.3400 3223.5975
7.3500 3044.2600
7.3600 3135.6875
7.3700 3152.3825
7.3800 3121.7775
7.3900 2914.9000
7.4000 2992.2425
7.4100 3326.7725
7.4200 3383.0525
7.4300 3323.4700
7.4400 2875.4600
7.4500 2961.0150
7.4600 3374.2700
7.4700 3386.8400
7.4800 3187.3850
7.4900 3089.1225
7.5000 3128.6800
7.5100 3519.1500
7.5200 4052.5425
7.5300 3680.8350
7.5400 3680.9725
7.5500 3371.7550
7.5600 3114.9250
7.5700 3196.8325
7.5800 3132.9300
7.5900 2992.7200
7.6000 2838.0300
7.6100 2977.0050
7.6200 3120.0500
7.6300 3142.0575
7.6400 3054.8525
7.6500 3150.0150
7.6600 3266.2700
7.6700 3453.4025
7.6800 3444.5175
7.6900 3346.0775
7.7000 3233.4800
7.7100 3409.1875
7.7200 3372.2100
7.7300 3630.1025
7.7400 3481.8825
7.7500 3579.1100
7.7600 3772.7375
7.7700 3671.4175
7.7800 3304.4550
7.7900 3292.5025
7.8000 3460.8750
7.8100 3535.1850
7.8200 3731.5725
7.8300 3629.8425
7.8400 3481.0875
7.8500 3343.9325
7.8600 3527.9300
7.8700 3746.3200
7.8800 3740.1325
7.8900 3842.2000
7.9000 3822.4825
7.9100 3805.3575
7.9200 3839.8625
7.9300 4058.7225
7.9400 4025.2975
7.9500 4585.9875
7.9600 4234.2475
7.9700 4194.6600
7.9800 4331.1100
7.9900 4769.0850
8.0000 5190.2675
8.0100 5520.6850
8.0200 5966.9300
8.0300 6644.7950
8.0400 6919.5025
8.0500 7414.3225
8.0600 7597.6600
8.0700 7485.3850
8.0800 8054.1450
8.0900 8967.6775
8.1000 10160.5825
8.1100 11644.8425
8.1200 13151.2700
8.1300 14246.2850
8.1400 16748.7825
8.1500 19340.3650
8.1600 21643.5000
8.1700 25396.3900
8.1800 29047.5500
8.1900 33592.3400
8.2000 39747.0475
8.2100 47176.3750
8.2200 54042.5675
8.2300 61785.0750
8.2400 71385.9525
8.2500 81213.3850
8.2600 87622.8650
8.2700 92099.1575
8.2800 95803.3750
8.2900 94789.8625
8.3000 88380.3600
8.3100 80369.9125
8.3200 71391.4025
8.3300 60102.1925
8.3400 48637.1525
8.3500 38170.2875
8.3600 30019.4975
8.3700 24312.3750
8.3800 19367.0750
8.3900 16203.0100
8.4000 14349.8825
8.4100 13433.7225
8.4200 12827.3400
8.4300 11893.4800
8.4400 11221.1575
8.4500 11901.3850
8.4600 13295.8875
8.4700 13642.6075
8.4800 14488.2350
8.4900 16477.3725
8.5000 18286.1100
8.5100 19909.4800
8.5200 20898.1225
8.5300 24630.9575
8.5400 29544.9775
8.5500 33803.4550
8.5600 38027.2400
8.5700 44593.1625
8.5800 51467.1525
8.5900 59157.4900
8.6000 69598.5500
8.6100 79476.7175
8.6200 91199.9200
8.6300 102117.1300
8.6400 110206.9800
8.6500 115433.8200
8.6600 113296.7175
8.6700 106054.6300
8.6800 96618.0950
8.6900 85698.2150
8.7000 71926.9875
8.7100 56867.8550
8.7200 44595.6675
8.7300 34330.9700
8.7400 25621.4600
8.7500 18358.7400
8.7600 14409.9050
8.7700 12050.5125
8.7800 10040.1300
8.7900 8634.0625
8.8000 7753.6400
8.8100 7767.6925
8.8200 7954.8500
8.8300 7743.6375
8.8400 6974.2425
8.8500 6434.4725
8.8600 6168.7250
8.8700 5803.1575
8.8800 5826.8850
8.8900 5987.9500
8.9000 5973.7950
8.9100 5942.1025
8.9200 5644.1625
8.9300 5318.8375
8.9400 4868.0875
8.9500 4595.9800
8.9600 4553.4150
8.9700 4615.0450
8.9800 4336.5875
8.9900 4356.6350
9.0000 4751.6625
9.0100 4842.1525
9.0200 4711.1850
9.0300 4524.0125
9.0400 4510.2675
9.0500 4410.9150
9.0600 4462.9050
9.0700 4357.5575
9.0800 4362.5225
9.0900 4572.6350
9.1000 4698.2075
9.1100 4717.9150
9.1200 4452.1575
9.1300 4319.9300
9.1400 4760.6100
9.1500 4787.5300
9.1600 4442.3975
9.1700 4615.1825
9.1800 4848.3475
9.1900 5009.1725
9.2000 4670.5875
9.2100 4430.0800
9.2200 4489.4325
9.2300 4286.8900
9.2400 4188.7000
9.2500 4208.9375
9.2600 4098.1475
9.2700 3777.2625
9.2800 3667.1625
9.2900 3434.1150
9.3000 3366.5875
9.3100 3602.2025
9.3200 3646.3600
9.3300 3395.1750
9.3400 3142.1325
9.3500 3085.6800
9.3600 2948.2400
9.3700 2608.0050
9.3800 2665.8675
9.3900 2994.6450
9.4000 3031.5300
9.4100 2916.7200
9.4200 2980.3550
9.4300 2955.9625
9.4400 2862.2425
9.4500 2710.7525
9.4600 2675.2800
9.4700 2594.1700
9.4800 2817.6150
9.4900 3089.3750
9.5000 2983.7075
9.5100 2820.9025
9.5200 2944.4800
9.5300 2774.5500
9.5400 2489.8525
9.5500 2596.5775
9.5600 2684.0175
9.5700 2506.7925
9.5800 2547.7300
9.5900 2752.1700
9.6000 2600.9025
9.6100 2503.6850
9.6200 2827.3575
9.6300 2988.0775
9.6400 2932.6275
9.6500 2784.9475
9.6600 2908.6050
9.6700 2848.2625
9.6800 2795.0425
9.6900 2848.7625
9.7000 2758.6725
9.7100 2853.5025
9.7200 3027.6050
9.7300 2796.3325
9.7400 2681.7550
9.7500 3051.0400
9.7600 3353.9400
9.7700 3293.5125
9.7800 3334.7950
9.7900 3659.5375
9.8000 3853.5025
9.8100 3854.4125
9.8200 4384.9950
9.8300 5092.1325
9.8400 5435.2200
9.8500 5813.7875
9.8600 6701.4250
9.8700 7636.7300
9.8800 8351.7925
9.8900 9371.7575
9.9000 10755.6425
9.9100 12279.5950
9.9200 14760.3000
9.9300 17953.4100
9.9400 20937.3950
9.9500 24097.2125
9.9600 27557.7650
9.9700 30697.1050
9.9800 33370.9125
9.9900 35779.6375
10.0000 37141.2450
10.0100 37730.1700
10.0200 36685.5975
10.0300 33071.9900
10.0400 27805.6875
10.0500 23025.1750
10.0600 18559.2250
10.0700 14760.6450
10.0800 11821.3225
10.0900 9168.4800
10.1000 7206.2125
10.1100 5677.5550
10.1200 4649.6675
10.1300 4534.8425
10.1400 4322.5575
10.1500 3815.2800
10.1600 3581.0650
10.1700 3609.0250
10.1800 3475.0700
10.1900 3233.5725
10.2000 3164.3750
10.2100 3173.3525
10.2200 2783.6625
10.2300 2564.4075
10.2400 2916.4350
10.2500 2892.3300
10.2600 2769.4300
10.2700 2845.6700
10.2800 2678.3050
10.2900 2670.7850
10.3000 2679.7025
10.3100 2501.7600
10.3200 2451.3825
10.3300 2436.8450
10.3400 2319.9750
10.3500 2293.7375
10.3600 2297.5375
10.3700 2355.3625
10.3800 2329.2225
10.3900 2243.0025
10.4000 2180.9550
10.4100 2136.9350
10.4200 2194.4225
10.4300 2258.1975
10.4400 2232.3750
10.4500 2188.4425
10.4600 2049.8875
10.4700 1946.2325
10.4800 2127.4325
10.4900 2221.8500
10.5000 2195.7725
10.5100 2281.9650
10.5200 2216.2850
10.5300 1936.7100
10.5400 1838.3400
10.5500 1772.7700
10.5600 1798.9075
10.5700 2084.5850
10.5800 2203.1575
10.5900 2194.6225
10.6000 2152.2250
10.6100 2236.1750
10.6200 2422.0050
10.6300 2387.2875
10.6400 2226.7300
10.6500 2216.8550
10.6600 2354.2875
10.6700 2285.6475
10.6800 2515.4625
10.6900 2567.7175
10.7000 2480.4150
10.7100 2484.7975
10.7200 2521.9675
10.7300 2829.1525
10.7400 3068.4550
10.7500 3306.0975
10.7600 3718.5800
10.7700 4092.8300
10.7800 4491.8475
10.7900 4983.5375
10.8000 5515.0450
10.8100 6581.9275
10.8200 7863.2825
10.8300 9052.1925
10.8400 10554.0425
10.8500 12519.2950
10.8600 14675.8775
10.8700 16873.9300
10.8800 18471.8625
10.8900 20497.6500
10.9000 21817.0075
10.9100 22180.1275
10.9200 21647.8275
10.9300 20005.6425
10.9400 17673.8175
10.9500 15064.1700
10.9600 12038.0050
10.9700 9411.2450
10.9800 7390.4950
10.9900 5538.7825
11.0000 4194.3850
11.0100 3385.8475
11.0200 2880.4500
11.0300 2712.1025
11.0400 2545.8425
11.0500 2294.3425
11.0600 2377.3150
11.0700 2505.2875
11.0800 2421.5850
11.0900 2197.6175
11.1000 2077.4375
11.1100 2043.1300
11.1200 1855.6700
11.1300 1671.1700
11.1400 1735.5175
11.1500 1865.0175
11.1600 1850.4375
11.1700 1797.2900
11.1800 1671.4300
11.1900 1731.7475
11.2000 1692.1725
11.2100 1584.5375
11.2200 1615.0825
11.2300 1653.1775
11.2400 1551.9700
11.2500 1452.2100
11.2600 1613.9175
11.2700 1773.7700
11.2800 1637.3075
11.2900 1581.4325
11.3000 1642.9175
11.3100 1558.5600
11.3200 1407.8150
11.3300 1410.7100
11.3400 1409.3650
11.3500 1372.8575
11.3600 1481.3500
11.3700 1531.0150
11.3800 1490.5475
11.3900 1446.2825
11.4000 1483.8700
11.4100 1420.5975
11.4200 1275.0125
11.4300 1320.0800
11.4400 1420.3350
11.4500 1458.0400
11.4600 1483.9600
11.4700 1401.7800
11.4800 1361.0475
11.4900 1398.7050
11.5000 1286.2275
11.5100 1206.7300
11.5200 1309.3850
11.5300 1363.2175
11.5400 1549.0900
11.5500 1562.5350
11.5600 1471.0900
11.5700 1374.9400
11.5800 1383.0925
11.5900 1360.9775
11.6000 1335.1300
11.6100 1323.6300
11.6200 1332.7950
11.6300 1427.1275
11.6400 1321.8250
11.6500 1249.0500
11.6600 1388.3125
11.6700 1348.7075
11.6800 1134.1450
11.6900 1069.7525
11.7000 1226.8225
11.7100 1330.7975
11.7200 1210.3100
11.7300 1145.7675
11.7400 1272.2725
11.7500 1427.1025
11.7600 1306.1125
11.7700 1357.7975
11.7800 1552.5225
11.7900 1453.1500
11.8000 1302.8200
11.8100 1428.9150
11.8200 1408.5900
11.8300 1364.4950
11.8400 1362.8200
11.8500 1315.1325
11.8600 1387.2250
11.8700 1429.5950
11.8800 1314.5650
11.8900 1348.7250
11.9000 1396.9050
11.9100 1288.1650
11.9200 1170.9025
11.9300 1224.9750
11.9400 1218.3575
11.9500 1133.2025
11.9600 1149.5375
11.9700 1301.6200
11.9800 1304.1475
11.9900 1164.2975
12.0000 1116.9275
12.0100 1230.7825
12.0200 1465.8175
12.0300 1408.8325
12.0400 1182.8250
12.0500 1055.2275
12.0600 1036.5100
12.0700 1129.9900
12.0800 1258.0400
12.0900 1243.9300
12.1000 1156.6650
12.1100 1203.3450
12.1200 1246.0875
12.1300 1332.3275
12.1400 1313.5125
12.1500 1203.3050
12.1600 1122.9400
12.1700 1131.9475
12.1800 1135.1875
12.1900 1015.5450
12.2000 1127.2275
12.2100 1374.2875
12.2200 1370.3200
12.2300 1355.6400
12.2400 1275.4975
12.2500 1170.5625
12.2600 1211.2425
12.2700 1300.3125
12.2800 1373.0900
12.2900 1436.5125
12.3000 1345.7175
12.3100 1227.0650
12.3200 1173.2425
12.3300 1165.2125
12.3400 1187.3200
12.3500 1241.2125
12.3600 1382.1525
12.3700 1283.8750
12.3800 1092.1650
12.3900 1247.7050
12.4000 1271.6425
12.4100 1087.5100
12.4200 988.3450
12.4300 953.0375
12.4400 979.3750
12.4500 1082.7875
12.4600 1069.8250
12.4700 1053.9800
12.4800 1085.6350
12.4900 1100.2000
12.5000 1189.5200
12.5100 1205.7350
12.5200 1170.3200
12.5300 1249.7300
12.5400 1290.8800
12.5500 1213.4775
12.5600 1126.5950
12.5700 1117.9175
12.5800 1219.7950
12.5900 1088.3750
12.6000 1008.3625
12.6100 1167.3325
12.6200 1169.0325
12.6300 1071.1525
12.6400 917.1450
12.6500 852.8475
12.6600 1057.6700
12.6700 1166.2950
12.6800 1170.4125
12.6900 1216.9550
12.7000 1227.4475
12.7100 1226.4850
12.7200 1225.5250
12.7300 1224.5675
12.7400 1171.5050
12.7500 1202.9000
12.7600 1192.6125
12.7700 1149.0400
12.7800 1261.7150
12.7900 1276.0225
12.8000 1204.9750
12.8100 1244.2450
12.8200 1353.4225
12.8300 1383.7250
12.8400 1436.9625
12.8500 1440.1400
12.8600 1381.9550
12.8700 1572.9975
12.8800 1755.7200
12.8900 1970.1575
12.9000 2278.7025
12.9100 2403.7225
12.9200 2616.8625
12.9300 3280.1375
12.9400 3850.3250
12.9500 4340.2875
12.9600 5047.1150
12.9700 6017.0825
12.9800 6998.5800
12.9900 8175.9875
13.0000 9225.8025
13.0100 9414.0950
13.0200 9378.6475
13.0300 9265.3075
13.0400 8721.9700
13.0500 7874.7375
13.0600 6850.3950
13.0700 5897.8125
13.0800 4933.4725
13.0900 3896.5100
13.1000 3029.7900
13.1100 2527.3050
13.1200 2226.8325
13.1300 1806.0800
13.1400 1516.7450
13.1500 1396.0725
13.1600 1265.2225
13.1700 1281.4225
13.1800 1336.2475
13.1900 1274.7425
13.2000 1216.1300
13.2100 1228.3800
13.2200 1164.4625
13.2300 1084.2100
13.2400 1071.1875
13.2500 1059.0450
13.2600 1119.1350
13.2700 1223.5975
13.2800 1158.6900
13.2900 1080.1325
13.3000 1089.8625
13.3100 1138.2150
13.3200 1218.1400
13.3300 1143.3300
13.3400 1039.8825
13.3500 1124.0825
13.3600 1201.7375
13.3700 1117.4950
13.3800 1108.7550
13.3900 1068.6725
13.4000 929.5925
13.4100 991.1825
13.4200 1127.9550
13.4300 1172.9325
13.4400 1052.4825
13.4500 832.3775
13.4600 848.2150
13.4700 1032.1900
13.4800 1051.2775
13.4900 994.0575
13.5000 1005.1325
13.5100 968.5075
13.5200 957.9925
13.5300 955.8475
13.5400 921.3050
13.5500 932.3625
13.5600 1001.5375
13.5700 1022.0650
13.5800 952.4400
13.5900 941.2775
13.6000 858.2100
13.6100 802.7550
13.6200 916.9900
13.6300 972.2825
13.6400 937.1175
13.6500 913.9175
13.6600 878.5475
13.6700 1017.4450
13.6800 1047.0350
13.6900 899.7375
13.7000 910.8525
13.7100 921.1925
13.7200 851.8775
13.7300 817.9725
13.7400 862.7650
13.7500 884.6200
13.7600 906.8250
13.7700 985.6775
13.7800 1041.1400
13.7900 1006.2525
13.8000 915.0150
13.8100 880.9100
13.8200 914.0650
13.8300 935.9550
13.8400 901.2800
13.8500 833.1625
13.8600 821.4025
13.8700 820.7675
13.8800 865.2075
13.8900 931.8950
13.9000 1043.4250
13.9100 997.8900
13.9200 862.6575
13.9300 940.3150
13.9400 1051.5300
13.9500 1062.1425
13.9600 983.2400
13.9700 1015.5900
13.9800 1126.5750
13.9900 1092.8025
14.0000 1035.9400
14.0100 1112.7875
14.0200 1057.5775
14.0300 977.9000
14.0400 1066.0500
14.0500 1010.9500
14.0600 942.5700
14.0700 975.4500
14.0800 1117.3400
14.0900 1404.2675
14.1000 1559.5075
14.1100 1678.8450
14.1200 1876.6875
14.1300 2182.7075
14.1400 2556.9425
14.1500 2787.5875
14.1600 2809.5000
14.1700 2838.4600
14.1800 3109.8775
14.1900 3319.0550
14.2000 3112.1875
14.2100 2616.7750
14.2200 2196.3650
14.2300 2070.9725
14.2400 1984.7450
14.2500 1699.6875
14.2600 1466.9550
14.2700 1313.3900
14.2800 1169.8475
14.2900 1059.9150
14.3000 1120.8175
14.3100 1125.3725
14.3200 991.4375
14.3300 958.3575
14.3400 935.4250
14.3500 839.3700
14.3600 780.9650
14.3700 909.5325
14.3800 966.2375
14.3900 921.6450
14.4000 899.3500
14.4100 856.0450
14.4200 874.6350
14.4300 1013.5825
14.4400 1038.9275
14.4500 929.6475
14.4600 957.7450
14.4700 982.6550
14.4800 999.4350
14.4900 982.7600
14.5000 861.3225
14.5100 828.1325
14.5200 826.8400
14.5300 827.0125
14.5400 794.6450
14.5500 771.9050
14.5600 740.4025
14.5700 737.5500
14.5800 739.4275
14.5900 705.6500
14.6000 797.6325
14.6100 876.3575
14.6200 894.5800
14.6300 938.3100
14.6400 958.1175
14.6500 959.2100
14.6600 834.4325
14.6700 774.0125
14.6800 859.3825
14.6900 871.7050
14.7000 838.8250
14.7100 877.8525
14.7200 952.8475
14.7300 974.3375
14.7400 973.6825
14.7500 1013.3550
14.7600 1137.4850
14.7700 1184.9750
14.7800 1170.0775
14.7900 1282.7225
14.8000 1360.2875
14.8100 1408.3650
14.8200 1593.6775
14.8300 1725.2200
14.8400 1634.3325
14.8500 1523.8525
14.8600 1481.9500
14.8700 1408.0950
14.8800 1333.2225
14.8900 1190.2175
14.9000 1028.4075
14.9100 1003.3375
14.9200 985.2575
14.9300 960.1800
14.9400 991.4550
14.9500 982.1575
14.9600 929.9775
14.9700 955.1375
14.9800 952.0775
14.9900 962.3425
15.0000 1031.5925
15.0100 958.8000
15.0200 953.0825
15.0300 1016.0000
15.0400 1027.6350
15.0500 1045.0800
15.0600 1145.3375
15.0700 1163.5300
15.0800 1048.3200
15.0900 915.2675
15.1000 874.8750
15.1100 929.3250
15.1200 947.9725
15.1300 1007.8200
15.1400 1012.7400
15.1500 900.9300
15.1600 832.9400
15.1700 833.8200
15.1800 860.5100
15.1900 932.5525
15.2000 869.5800
15.2100 749.5975
15.2200 776.1600
15.2300 838.5925
15.2400 765.1525
15.2500 692.7225
15.2600 736.1975
15.2700 716.8150
15.2800 684.9525
15.2900 814.9475
15.3000 894.3000
15.3100 823.1700
15.3200 808.5875
15.3300 725.0700
15.3400 747.9100
15.3500 766.4400
15.3600 701.7700
15.3700 718.3550
15.3800 769.4250
15.3900 734.9800
15.4000 696.6500
15.4100 766.2300
15.4200 874.5000
15.4300 885.7600
15.4400 790.0100
15.4500 776.8425
15.4600 741.1350
15.4700 658.2575
15.4800 588.1575
15.4900 645.1675
15.5000 820.2525
15.5100 876.2075
15.5200 773.0750
15.5300 681.4900
15.5400 821.7575
15.5500 936.0150
15.5600 847.9050
15.5700 836.4050
15.5800 883.2700
15.5900 751.8375
15.6000 620.2150
15.6100 656.0675
15.6200 726.5050
15.6300 749.7750
15.6400 738.3775
15.6500 764.9600
15.6600 806.2375
15.6700 843.6300
15.6800 875.8425
15.6900 812.4800
15.7000 762.4575
15.7100 767.8600
15.7200 761.4625
15.7300 775.8500
15.7400 744.6275
15.7500 751.0650
15.7600 816.8775
15.7700 888.6475
15.7800 963.1300
15.7900 1001.3350
15.8000 959.1600
15.8100 947.6600
15.8200 947.0650
15.8300 1043.4800
15.8400 1171.4500
15.8500 1128.8225
15.8600 1150.6425
15.8700 1302.6800
15.8800 1303.7075
15.8900 1237.5825
15.9000 1175.6075
15.9100 1212.2225
15.9200 1204.6425
15.9300 923.1300
15.9400 846.4025
15.9500 987.1500
15.9600 956.4200
15.9700 729.8475
15.9800 707.4525
15.9900 735.4225
16.0000 754.1775
16.0100 758.5350
16.0200 716.4650
16.0300 785.2900
16.0400 774.4225
16.0500 814.0525
16.0600 821.5625
16.0700 688.4575
16.0800 707.4425
16.0900 700.7775
16.1000 678.6375
16.1100 754.9000
16.1200 792.5275
16.1300 733.0900
16.1400 796.7775
16.1500 842.0450
16.1600 703.6650
16.1700 591.3200
16.1800 689.8000
16.1900 724.3025
16.2000 662.4625
16.2100 580.1975
16.2200 608.6025
16.2300 664.8450
16.2400 611.6800
16.2500 615.7675
16.2600 699.5700
16.2700 659.8500
16.2800 627.8550
16.2900 720.7775
16.3000 718.7050
16.3100 623.3650
16.3200 645.3725
16.3300 679.9725
16.3400 693.5850
16.3500 758.7075
16.3600 801.5125
16.3700 908.3000
16.3800 990.6350
16.3900 922.5800
16.4000 1023.2700
16.4100 1092.2850
16.4200 1116.9900
16.4300 1235.1900
16.4400 1258.9850
16.4500 1315.1500
16.4600 1297.7975
16.4700 1272.9650
16.4800 1228.5050
16.4900 1073.7950
16.5000 1065.1200
16.5100 1023.8675
16.5200 926.1050
16.5300 957.9125
16.5400 968.1800
16.5500 835.6550
16.5600 748.7275
16.5700 767.2725
16.5800 758.5800
16.5900 766.3850
16.6000 725.5550
16.6100 746.3875
16.6200 733.0475
16.6300 633.1825
16.6400 664.3325
16.6500 750.1450
16.6600 717.8450
16.6700 666.3725
16.6800 575.7700
16.6900 539.1275
16.7000 659.5000
16.7100 699.3250
16.7200 733.3875
16.7300 788.9325
16.7400 789.2150
16.7500 674.8200
16.7600 593.3050
16.7700 653.7525
16.7800 730.6950
16.7900 754.6975
16.8000 720.0150
16.8100 710.7800
16.8200 648.9225
16.8300 519.5275
16.8400 542.5850
16.8500 558.9550
16.8600 622.5975
16.8700 662.8325
16.8800 578.2500
16.8900 648.8450
16.9000 694.4400
16.9100 644.6825
16.9200 613.7475
16.9300 614.7875
16.9400 563.7900
16.9500 591.1450
16.9600 682.8400
16.9700 743.7675
16.9800 800.0000
16.9900 848.6175
17.0000 826.6650
17.0100 780.4175
17.0200 723.2275
17.0300 672.6575
17.0400 556.0825
17.0500 603.9575
17.0600 739.8300
17.0700 727.4050
17.0800 664.5800
17.0900 591.1150
17.1000 547.9125
17.1100 555.1300
17.1200 603.1475
17.1300 663.8675
17.1400 651.6725
17.1500 619.1700
17.1600 626.3025
17.1700 629.1650
17.1800 625.5675
17.1900 598.6050
17.2000 574.5575
17.2100 646.8000
17.2200 666.9225
17.2300 597.3225
17.2400 521.2525
17.2500 525.8975
17.2600 564.2700
17.2700 557.3375
17.2800 600.5350
17.2900 647.0000
17.3000 682.7275
17.3100 637.5450
17.3200 541.0075
17.3300 584.7000
17.3400 685.0875
17.3500 708.8450
17.3600 614.5700
17.3700 568.6525
17.3800 632.9075
17.3900 708.2550
17.4000 750.0925
17.4100 739.4275
17.4200 705.7500
17.4300 652.7675
17.4400 752.5950
17.4500 783.8325
17.4600 729.7325
17.4700 675.6925
17.4800 657.7125
17.4900 664.2850
17.5000 599.4925
17.5100 606.9150
17.5200 677.3525
17.5300 552.1175
17.5400 516.6950
17.5500 637.2450
17.5600 615.4200
17.5700 551.1500
17.5800 543.7275
17.5900 554.1725
17.6000 607.2825
17.6100 660.3675
17.6200 614.2425
17.6300 553.4325
17.6400 688.0875
17.6500 734.3000
17.6600 670.2675
17.6700 673.3400
17.6800 740.6050
17.6900 789.9075
17.7000 783.1750
17.7100 645.0125
17.7200 583.8325
17.7300 658.1150
17.7400 675.9750
17.7500 689.4250
17.7600 721.6950
17.7700 703.4150
17.7800 717.6300
17.7900 713.7225
17.8000 738.1600
17.8100 717.6000
17.8200 667.1350
17.8300 702.2525
17.8400 751.2300
17.8500 835.4450
17.8600 899.4550
17.8700 892.2975
17.8800 978.1525
17.8900 1120.9325
17.9000 1234.1450
17.9100 1323.2575
17.9200 1251.7175
17.9300 1452.6575
17.9400 1569.3800
17.9500 1594.2650
17.9600 1528.2275
17.9700 1373.4700
17.9800 1341.1800
17.9900 1315.1525
18.0000 1096.2950
18.0100 1113.5725
18.0200 1008.0200
18.0300 832.0525
18.0400 897.0575
18.0500 907.9000
18.0600 796.2975
18.0700 806.8350
18.0800 738.7775
18.0900 665.0000
18.1000 705.0300
18.1100 649.5175
18.1200 622.6175
18.1300 658.7225
18.1400 620.8100
18.1500 597.8325
18.1600 616.4925
18.1700 648.6250
18.1800 687.5250
18.1900 585.1275
18.2000 588.8575
18.2100 623.8850
18.2200 532.3125
18.2300 515.8350
18.2400 598.8975
18.2500 636.7025
18.2600 620.1000
18.2700 649.7350
18.2800 608.0300
18.2900 575.5200
18.3000 555.4375
18.3100 489.7375
18.3200 468.8200
18.3300 569.0350
18.3400 670.9225
18.3500 694.0925
18.3600 621.8825
18.3700 563.5275
18.3800 613.7450
18.3900 678.4025
18.4000 638.7425
18.4100 639.4850
18.4200 747.4050
18.4300 720.9625
18.4400 651.3050
18.4500 627.5300
18.4600 679.4475
18.4700 692.1125
18.4800 620.2925
18.4900 581.3050
18.5000 617.9275
18.5100 567.8725
18.5200 554.8125
18.5300 693.2925
18.5400 753.7800
18.5500 690.8000
18.5600 625.7175
18.5700 610.2250
18.5800 688.0300
18.5900 664.2950
18.6000 575.3275
18.6100 534.1475
18.6200 520.8075
18.6300 540.3375
18.6400 557.0875
18.6500 647.7425
18.6600 690.9825
18.6700 658.7450
18.6800 572.2700
18.6900 543.4375
18.7000 605.9150
18.7100 631.9525
18.7200 652.8350
18.7300 687.8650
18.7400 680.5650
18.7500 711.1375
18.7600 771.8500
18.7700 944.7300
18.7800 935.4125
18.7900 851.7775
18.8000 933.0575
18.8100 1017.0650
18.8200 1024.1675
18.8300 999.3200
18.8400 1006.4850
18.8500 968.9900
18.8600 948.1550
18.8700 805.4275
18.8800 721.8625
18.8900 847.7700
18.9000 783.2050
18.9100 683.5750
18.9200 719.1150
18.9300 698.7375
18.9400 726.6100
18.9500 799.7250
18.9600 852.4650
18.9700 704.2700
18.9800 641.7125
18.9900 734.9125
19.0000 890.3200
19.0100 929.4975
19.0200 762.5775
19.0300 693.9525
19.0400 693.3975
19.0500 769.6650
19.0600 769.4700
19.0700 793.9400
19.0800 837.4425
19.0900 812.6100
19.1000 762.5400
19.1100 708.4200
19.1200 631.7125
19.1300 723.5075
19.1400 930.2350
19.1500 933.1425
19.1600 795.5225
19.1700 766.0625
19.1800 757.4400
19.1900 813.2150
19.2000 920.1350
19.2100 1121.8300
19.2200 1318.5150
19.2300 1588.1475
19.2400 1773.7600
19.2500 2035.4725
19.2600 2506.2950
19.2700 2926.2325
19.2800 3377.5750
19.2900 3907.3100
19.3000 3963.8925
19.3100 4022.4875
19.3200 4151.6350
19.3300 4001.9900
19.3400 3863.9250
19.3500 3476.5925
19.3600 3160.4425
19.3700 2835.3925
19.3800 2274.9325
19.3900 1986.3150
19.4000 1636.5850
19.4100 1457.9400
19.4200 1252.9800
19.4300 1172.1050
19.4400 965.0250
19.4500 745.0025
19.4600 774.4800
19.4700 805.5400
19.4800 725.8375
19.4900 647.8525
19.5000 643.4225
19.5100 646.7425
19.5200 615.1650
19.5300 623.6750
19.5400 522.1825
19.5500 514.8100
19.5600 671.7425
19.5700 759.6475
19.5800 677.3950
19.5900 540.6175
19.6000 620.3250
19.6100 702.4525
19.6200 656.2300
19.6300 624.9450
19.6400 702.5650
19.6500 730.2550
19.6600 723.6550
19.6700 643.9275
19.6800 607.7700
19.6900 660.5075
19.7000 606.8425
19.7100 672.8850
19.7200 690.0550
19.7300 728.7650
19.7400 745.3875
19.7500 762.0050
19.7600 749.8325
19.7700 682.4750
19.7800 695.5700
19.7900 759.9475
19.8000 688.5775
19.8100 658.5600
19.8200 559.7200
19.8300 666.6575
19.8400 719.5750
19.8500 626.6525
19.8600 692.5025
19.8700 681.5975
19.8800 675.1175
19.8900 631.0000
19.9000 641.6225
19.9100 602.3250
19.9200 568.9750
19.9300 591.4625
19.9400 652.5525
19.9500 685.6075
19.9600 696.7175
19.9700 718.6950
19.9800 701.6325
19.9900 707.5800
20.0000 914.1525
20.0100 1095.8675
20.0200 968.3275
20.0300 1006.9425
20.0400 1062.5300
20.0500 1173.3275
20.0600 1329.0425
20.0700 1656.5000
20.0800 1889.1475
20.0900 1983.4250
20.1000 2189.0000
20.1100 2416.6700
20.1200 2422.2375
20.1300 2394.4075
20.1400 2416.7350
20.1500 2311.2225
20.1600 2216.7275
20.1700 2128.0250
20.1800 1872.9775
20.1900 1528.1125
20.2000 1372.5250
20.2100 1228.2000
20.2200 1144.2125
20.2300 1144.9525
20.2400 994.8300
20.2500 883.6900
20.2600 811.1750
20.2700 821.9500
20.2800 861.1825
20.2900 839.0425
20.3000 789.2950
20.3100 722.3925
20.3200 678.1375
20.3300 644.2550
20.3400 726.6925
20.3500 833.6425
20.3600 794.5525
20.3700 788.7775
20.3800 789.1200
20.3900 810.1475
20.4000 861.9850
20.4100 734.4975
20.4200 649.6000
20.4300 694.1675
20.4400 727.4925
20.4500 777.0450
20.4600 827.9300
20.4700 827.4675
20.4800 823.0200
20.4900 755.8825
20.5000 744.1075
20.5100 777.4325
20.5200 832.2700
20.5300 948.3675
20.5400 1103.6975
20.5500 1205.9350
20.5600 1253.0275
20.5700 1426.7825
20.5800 1547.5625
20.5900 1677.9850
20.6000 1565.1375
20.6100 1382.0350
20.6200 1530.0250
20.6300 1684.0075
20.6400 1623.3675
20.6500 1625.2075
20.6600 1728.7300
20.6700 1784.2850
20.6800 2005.3100
20.6900 2276.5900
20.7000 3024.1425
20.7100 3586.9150
20.7200 4101.8700
20.7300 4584.5950
20.7400 4808.9300
20.7500 4910.5575
20.7600 4933.3325
20.7700 4943.8725
20.7800 4724.4550
20.7900 4042.1650
20.8000 3463.4450
20.8100 2823.9425
20.8200 2429.2925
20.8300 2182.3975
20.8400 2012.3300
20.8500 1456.7300
20.8600 1159.1275
20.8700 1033.3325
20.8800 986.3350
20.8900 904.2050
20.9000 897.8650
20.9100 814.5875
20.9200 893.7425
20.9300 906.2650
20.9400 867.7450
20.9500 822.9500
20.9600 815.5625
20.9700 813.7200
20.9800 702.2625
20.9900 612.6350
21.0000 618.3675
21.0100 723.0025
21.0200 700.0000
21.0300 694.8425
21.0400 724.5550
21.0500 816.6675
21.0600 744.6500
21.0700 603.8925
21.0800 680.8125
21.0900 770.5250
21.1000 806.4125
21.1100 798.7000
21.1200 843.5700
21.1300 830.8700
21.1400 714.2350
21.1500 674.1725
21.1600 741.1625
21.1700 647.6600
21.1800 627.7700
21.1900 776.8425
21.2000 800.0000
21.2100 759.3675
21.2200 697.1150
21.2300 751.4550
21.2400 696.4025
21.2500 710.7400
21.2600 834.8275
21.2700 835.3700
21.2800 936.8625
21.2900 1038.8200
21.3000 1176.7475
21.3100 1235.2500
21.3200 1382.0750
21.3300 1603.7125
21.3400 1761.6450
21.3500 1830.2925
21.3600 2006.6375
21.3700 1958.2850
21.3800 1894.9950
21.3900 1833.3225
21.4000 1631.7225
21.4100 1433.3325
21.4200 1358.5125
21.4300 1143.4625
21.4400 1045.0200
21.4500 993.5325
21.4600 890.0575
21.4700 866.6675
21.4800 831.9325
21.4900 740.0850
21.5000 746.3875
21.5100 811.7175
21.5200 740.6625
21.5300 604.9400
21.5400 596.9225
21.5500 564.7950
21.5600 619.7100
21.5700 671.5900
21.5800 698.0900
21.5900 767.7350
21.6000 840.1800
21.6100 762.7025
21.6200 638.2350
21.6300 659.7950
21.6400 722.4775
21.6500 792.2225
21.6600 708.9125
21.6700 669.5200
21.6800 741.0450
21.6900 790.2575
21.7000 752.0650
21.7100 750.7050
21.7200 852.7675
21.7300 895.1450
21.7400 868.7850
21.7500 862.4050
21.7600 943.0150
21.7700 1005.3600
21.7800 1138.6600
21.7900 1257.4750
21.8000 1297.3725
21.8100 1278.9175
21.8200 1306.6625
21.8300 1180.7575
21.8400 1128.5275
21.8500 1087.8525
21.8600 987.8800
21.8700 955.0150
21.8800 1050.0000
21.8900 1016.5050
21.9000 909.4300
21.9100 840.4475
21.9200 878.7025
21.9300 1014.2625
21.9400 923.7950
21.9500 854.7400
21.9600 921.4725
21.9700 830.9975
21.9800 783.3325
21.9900 802.3000
22.0000 835.7875
22.0100 800.0000
22.0200 785.8125
22.0300 726.3775
22.0400 661.9475
22.0500 650.0000
22.0600 668.8475
22.0700 730.7875
22.0800 743.1525
22.0900 697.4300
22.1000 719.2500
22.1100 678.6425
22.1200 643.2375
22.1300 616.1025
22.1400 709.3550
22.1500 705.2975
22.1600 633.3325
22.1700 619.3400
22.1800 555.3750
22.1900 511.2675
22.2000 587.9850
22.2100 553.5300
22.2200 498.3300
22.2300 694.4975
22.2400 748.1300
22.2500 709.2600
22.2600 714.8325
22.2700 652.8025
22.2800 616.6675
22.2900 639.7300
22.3000 676.9600
22.3100 630.4775
22.3200 703.4625
22.3300 721.8800
22.3400 544.2125
22.3500 635.0125
22.3600 687.9150
22.3700 690.8450
22.3800 675.8150
22.3900 672.5825
22.4000 595.4350
22.4100 615.2600
22.4200 718.2250
22.4300 766.6675
22.4400 766.6675
22.4500 807.5600
22.4600 912.1275
22.4700 940.8150
22.4800 1063.5925
22.4900 1122.6325
22.5000 1242.1200
22.5100 1418.0700
22.5200 1444.1000
22.5300 1374.3150
22.5400 1345.4950
22.5500 1279.3250
22.5600 1142.3250
22.5700 1198.1100
22.5800 1229.4800
22.5900 1069.8825
22.6000 993.0225
22.6100 901.2325
22.6200 941.0600
22.6300 912.2000
22.6400 855.3800
22.6500 760.0800
22.6600 819.9725
22.6700 747.7425
22.6800 667.7800
22.6900 698.9050
22.7000 627.8200
22.7100 575.5300
22.7200 613.2825
22.7300 645.5775
22.7400 615.6575
22.7500 579.9100
22.7600 607.8450
22.7700 592.1450
22.7800 634.2725
22.7900 674.5375
22.8000 680.7525
22.8100 771.0550
22.8200 752.6425
22.8300 644.7650
22.8400 613.9650
22.8500 730.6025
22.8600 838.5025
22.8700 956.7200
22.8800 1151.5375
22.8900 1250.0000
22.9000 1236.9500
22.9100 1278.2250
22.9200 1547.7575
22.9300 1726.7050
22.9400 1841.3350
22.9500 1812.3375
22.9600 1812.9725
22.9700 1841.3600
22.9800 1868.4575
22.9900 1917.5025
23.0000 1641.9475
23.0100 1645.1525
23.0200 1523.1525
23.0300 1341.4125
23.0400 1278.0550
23.0500 1136.6675
23.0600 1032.8750
23.0700 987.6100
23.0800 1000.0000
23.0900 978.6575
23.1000 925.1950
23.1100 954.2600
23.1200 953.9000
23.1300 874.1525
23.1400 783.9775
23.1500 840.9050
23.1600 733.6200
23.1700 770.6300
23.1800 724.8725
23.1900 716.9025
23.2000 762.4450
23.2100 771.0850
23.2200 770.1400
23.2300 587.5425
23.2400 625.2250
23.2500 683.2000
23.2600 608.1600
23.2700 550.1000
23.2800 641.8700
23.2900 754.1175
23.3000 704.1300
23.3100 649.9700
23.3200 608.3400
23.3300 633.3325
23.3400 641.6550
23.3500 650.0375
23.3600 629.0700
23.3700 712.5175
23.3800 700.0000
23.3900 695.8600
23.4000 699.8750
23.4100 737.6050
23.4200 683.4925
23.4300 637.4550
23.4400 625.2900
23.4500 566.4575
23.4600 616.6675
23.4700 612.5600
23.4800 620.5075
23.4900 683.3325
23.5000 679.2400
23.5100 715.7300
23.5200 846.2450
23.5300 742.5350
23.5400 616.6675
23.5500 612.5950
23.5600 620.3350
23.5700 671.1450
23.5800 649.5675
23.5900 687.8375
23.6000 698.6000
23.6100 862.1375
23.6200 879.7925
23.6300 828.7775
23.6400 915.0600
23.6500 1050.5525
23.6600 931.5875
23.6700 720.6875
23.6800 757.4275
23.6900 809.2650
23.7000 717.3050
23.7100 702.6925
23.7200 796.6750
23.7300 769.2825
23.7400 851.4125
23.7500 718.1150
23.7600 616.6675
23.7700 608.7125
23.7800 591.2800
23.7900 632.5400
23.8000 679.3700
23.8100 686.4675
23.8200 726.2650
23.8300 665.8050
23.8400 760.0850
23.8500 860.5700
23.8600 701.8250
23.8700 615.7375
23.8800 643.0850
23.8900 574.5175
23.9000 619.6075
23.9100 683.3325
23.9200 679.4200
23.9300 670.5750
23.9400 698.9500
23.9500 796.8025
23.9600 957.7925
23.9700 983.3325
23.9800 987.2200
23.9900 1007.7650
24.0000 1037.2125
24.0100 1111.9925
24.0200 1347.6275
24.0300 1450.0000
24.0400 1504.0625
24.0500 1683.3325
24.0600 1656.3625
24.0700 1566.6675
24.0800 1528.2200
24.0900 1419.2025
24.1000 1467.9900
24.1100 1382.1800
24.1200 1247.5300
24.1300 1160.3950
24.1400 1045.1450
24.1500 935.7400
24.1600 992.3800
24.1700 947.6350
24.1800 849.1175
24.1900 691.5600
24.2000 550.0000
24.2100 576.5225
24.2200 674.2350
24.2300 696.2200
24.2400 672.0050
24.2500 663.5100
24.2600 759.1325
24.2700 729.5700
24.2800 690.3525
24.2900 611.2650
24.3000 668.7525
24.3100 744.5725
24.3200 753.3975
24.3300 664.9500
24.3400 716.6675
24.3500 709.2075
24.3600 690.7825
24.3700 720.3875
24.3800 699.8850
24.3900 590.7575
24.4000 612.9600
24.4100 596.2975
24.4200 594.4325
24.4300 644.4175
24.4400 701.7875
24.4500 748.2350
24.4600 668.6050
24.4700 620.3450
24.4800 655.3750
24.4900 748.0100
24.5000 789.0050
24.5100 713.3900
24.5200 594.3025
24.5300 640.6375
24.5400 666.6675
24.5500 666.6675
24.5600 663.0275
24.5700 642.7300
24.5800 620.2975
24.5900 615.2000
24.6000 550.0000
24.6100 557.2375
24.6200 601.4025
24.6300 695.5450
24.6400 785.5775
24.6500 715.3275
24.6600 639.2100
24.6700 621.5550
24.6800 735.8825
24.6900 834.4100
24.7000 716.6675
24.7100 720.2425
24.7200 715.4775
24.7300 657.1350
24.7400 711.8350
24.7500 798.8750
24.7600 704.9000
24.7700 610.6500
24.7800 671.2750
24.7900 746.4575
24.8000 712.1100
24.8100 633.3325
24.8200 647.4475
24.8300 707.0475
24.8400 733.3325
24.8500 729.8175
24.8600 692.0850
24.8700 610.5225
24.8800 639.4900
24.8900 606.9975
24.9000 622.8500
24.9100 597.2950
24.9200 663.9450
24.9300 734.0750
24.9400 786.0900
24.9500 726.3875
24.9600 703.4700
24.9700 727.0600
24.9800 780.5075
24.9900 819.5100
25.0000 804.6375
25.0100 932.7625
25.0200 901.1000
25.0300 1078.0425
25.0400 1304.9575
25.0500 1561.2650
25.0600 1750.4650
25.0700 1850.8875
25.0800 2041.4350
25.0900 2331.5225
25.1000 2583.3325
25.1100 2559.4975
25.1200 2439.4600
25.1300 2292.5750
25.1400 2116.3725
25.1500 2060.1650
25.1600 2022.1750
25.1700 1693.0100
25.1800 1542.6225
25.1900 1306.5550
25.2000 1296.9675
25.2100 1366.2300
25.2200 1119.6525
25.2300 889.7325
25.2400 730.0650
25.2500 803.4050
25.2600 866.6275
25.2700 800.0000
25.2800 760.0100
25.2900 626.6275
25.3000 710.0650
25.3100 623.3050
25.3200 676.5250
25.3300 799.8900
25.3400 853.4375
25.3500 780.1825
25.3600 686.8050
25.3700 643.2150
25.3800 699.7825
25.3900 783.0950
25.4000 859.8450
25.4100 883.6150
25.4200 819.9400
25.4300 803.9150
25.4400 670.2750
25.4500 623.1875
25.4600 646.7450
25.4700 626.8300
25.4800 587.0100
25.4900 552.7925
25.5000 639.8100
25.5100 653.7275
25.5200 622.6125
25.5300 716.6675
25.5400 703.7800
25.5500 669.3050
25.5600 762.8525
25.5700 790.9950
25.5800 664.1050
25.5900 596.1350
25.6000 678.7675
25.6100 796.8075
25.6200 770.5825
25.6300 713.4825
25.6400 706.3575
25.6500 749.2075
25.6600 813.4950
25.6700 809.5000
25.6800 850.0000
25.6900 843.6850
25.7000 867.1275
25.7100 1086.4825
25.7200 1140.8875
25.7300 1329.2300
25.7400 1380.1975
25.7500 1347.8725
25.7600 1254.1550
25.7700 1171.8850
25.7800 1062.4800
25.7900 1119.7825
25.8000 1117.7775
25.8100 1074.8550
25.8200 1186.4350
25.8300 1172.1150
25.8400 1031.4350
25.8500 928.3700
25.8600 845.6750
25.8700 893.8375
25.8800 857.4350
25.8900 804.3750
25.9000 743.8625
25.9100 725.8600
25.9200 757.4850
25.9300 713.6100
25.9400 709.1550
25.9500 771.3325
25.9600 851.4500
25.9700 792.4500
25.9800 799.9525
25.9900 701.5175
26.0000 909.1250
26.0100 796.9775
26.0200 795.4050
26.0300 880.1350
26.0400 1004.6300
26.0500 950.0000
26.0600 986.0075
26.0700 1173.9700
26.0800 1283.3325
26.0900 1349.0675
26.1000 1685.8025
26.1100 1793.3925
26.1200 1583.9100
26.1300 1825.5800
26.1400 1819.2000
26.1500 1605.9250
26.1600 1665.8725
26.1700 1819.6200
26.1800 1901.1750
26.1900 2210.7750
26.2000 2209.8025
26.2100 2327.4600
26.2200 2361.5850
26.2300 2667.5700
26.2400 2723.6825
26.2500 2591.2400
26.2600 2520.8450
26.2700 2365.8650
26.2800 2251.3550
26.2900 2082.5825
26.3000 1985.5075
26.3100 1873.2525
26.3200 1666.6675
26.3300 1620.4925
26.3400 1351.0125
26.3500 1113.7900
26.3600 1054.0300
26.3700 804.6450
26.3800 718.2300
26.3900 978.1075
26.4000 1001.9175
26.4100 832.8900
26.4200 735.7625
26.4300 675.1975
26.4400 728.0225
26.4500 774.8300
26.4600 727.6725
26.4700 700.0000
26.4800 700.0000
26.4900 694.3650
26.5000 672.2950
26.5100 688.7625
26.5200 636.1375
26.5300 661.2025
26.5400 699.8875
26.5500 639.0050
26.5600 716.5425
26.5700 569.4875
26.5800 683.3450
26.5900 761.1150
26.6000 736.1050
26.6100 747.2325
26.6200 725.0450
26.6300 705.4000
26.6400 827.6825
26.6500 872.3350
26.6600 794.7025
26.6700 694.3000
26.6800 755.4750
26.6900 783.3325
26.7000 766.9625
26.7100 683.3325
26.7200 702.3750
26.7300 780.9900
26.7400 688.7575
26.7500 708.5450
26.7600 653.1500
26.7700 596.8275
26.7800 707.0875
26.7900 895.1425
26.8000 780.6475
26.8100 745.2125
26.8200 641.3675
26.8300 696.7000
26.8400 782.6825
26.8500 879.9925
26.8600 950.0000
26.8700 926.0925
26.8800 800.0000
26.8900 789.4075
26.9000 733.3325
26.9100 772.9250
26.9200 1001.7800
26.9300 1068.4275
26.9400 863.2250
26.9500 669.2900
26.9600 714.7525
26.9700 893.7900
26.9800 963.0475
26.9900 1012.4900
27.0000 920.8100
27.0100 1056.7050
27.0200 1224.8175
27.0300 1499.1800
27.0400 1820.9350
27.0500 2116.6675
27.0600 2152.7275
27.0700 2398.8575
27.0800 2700.0400
27.0900 2873.0825
27.1000 2832.0200
27.1100 2891.1225
27.1200 2734.6975
27.1300 2642.3625
27.1400 2638.1275
27.1500 2862.6875
27.1600 2933.3325
27.1700 2910.5725
27.1800 2790.9075
27.1900 2823.2500
27.2000 2784.2800
27.2100 2860.7250
27.2200 2733.3325
27.2300 2703.2900
27.2400 2515.8375
27.2500 2361.7750
27.2600 2064.9450
27.2700 2147.5125
27.2800 2076.2400
27.2900 1737.6100
27.3000 1649.3500
27.3100 1564.8175
27.3200 1613.0200
27.3300 1360.6225
27.3400 1123.5050
27.3500 1044.5925
27.3600 926.4600
27.3700 978.4450
27.3800 920.7200
27.3900 762.1775
27.4000 816.3125
27.4100 706.9575
27.4200 669.3825
27.4300 759.1475
27.4400 633.5675
27.4500 726.1025
27.4600 702.5800
27.4700 802.2575
27.4800 740.6400
27.4900 876.1525
27.5000 842.8900
27.5100 878.5375
27.5200 735.7175
27.5300 661.8800
27.5400 733.3325
27.5500 726.2300
27.5600 680.9700
27.5700 671.3850
27.5800 711.7750
27.5900 773.9300
27.6000 709.6275
27.6100 678.3775
27.6200 761.6900
27.6300 816.9975
27.6400 721.3250
27.6500 754.6500
27.6600 783.3325
27.6700 785.6500
27.6800 788.4375
27.6900 707.4325
27.7000 645.3925
27.7100 621.2675
27.7200 666.0700
27.7300 757.5000
27.7400 700.0000
27.7500 700.0000
27.7600 713.6725
27.7700 804.5500
27.7800 824.2525
27.7900 750.8050
27.8000 647.7375
27.8100 646.8775
27.8200 753.6125
27.8300 869.8400
27.8400 754.1525
27.8500 591.3125
27.8600 767.8900
27.8700 881.1025
27.8800 862.2100
27.8900 840.0025
27.9000 885.5525
27.9100 915.5050
27.9200 990.1375
27.9300 823.2850
27.9400 879.8800
27.9500 988.6475
27.9600 1159.6575
27.9700 1377.1250
27.9800 1708.1875
27.9900 2016.0500
28.0000 2298.6375
28.0100 2755.0600
28.0200 2949.8700
28.0300 3304.9750
28.0400 3456.4800
28.0500 3469.8225
28.0600 3236.5475
28.0700 3018.3025
28.0800 2888.8100
28.0900 2680.7525
28.1000 2507.3125
28.1100 2199.6250
28.1200 2072.7050
28.1300 1974.5400
28.1400 1776.7075
28.1500 1580.7425
28.1600 1320.6800
28.1700 1224.9150
28.1800 1158.2650
28.1900 1089.5200
28.2000 1006.2075
28.2100 916.6325
28.2200 791.6650
28.2300 739.5700
28.2400 789.5575
28.2500 822.9800
28.2600 731.4025
28.2700 604.1250
28.2800 664.2025
28.2900 860.7425
28.3000 697.9500
28.3100 656.7450
28.3200 476.8725
28.3300 568.3300
28.3400 708.1300
28.3500 774.7800
28.3600 833.3325
28.3700 813.1350
28.3800 652.5575
28.3900 547.9875
28.4000 537.3475
28.4100 590.7000
28.4200 770.6650
28.4300 770.0850
28.4400 571.8900
28.4500 727.3750
28.4600 689.2775
28.4700 729.3775
28.4800 692.1075
28.4900 645.1475
28.5000 735.2975
28.5100 757.8425
28.5200 816.6675
28.5300 810.8100
28.5400 760.8225
28.5500 724.4400
28.5600 779.4550
28.5700 744.1950
28.5800 707.7225
28.5900 772.4450
28.6000 822.4325
28.6100 864.7475
28.6200 830.8625
28.6300 673.7850
28.6400 619.0525
28.6500 753.3600
28.6600 665.1750
28.6700 773.8700
28.6800 696.2225
28.6900 677.9700
28.7000 764.7875
28.7100 768.7550
28.7200 907.3100
28.7300 837.0675
28.7400 874.1175
28.7500 918.4650
28.7600 801.8550
28.7700 801.8650
28.7800 692.5625
28.7900 792.4500
28.8000 988.9750
28.8100 892.6675
28.8200 842.4775
28.8300 898.4200
28.8400 751.8200
28.8500 777.5625
28.8600 901.0925
28.8700 1197.7950
28.8800 1331.0950
28.8900 1457.1975
28.9000 1543.5900
28.9100 1791.7375
28.9200 2039.3025
28.9300 2382.7075
28.9400 2532.6675
28.9500 2673.7625
28.9600 2743.9500
28.9700 2819.2125
28.9800 2710.5650
28.9900 2770.1350
29.0000 2534.1925
29.0100 2688.5775
29.0200 2733.3325
29.0300 2762.9100
29.0400 3002.7825
29.0500 2890.2575
29.0600 2987.9950
29.0700 3304.6075
29.0800 3150.1625
29.0900 2682.3800
29.1000 2397.0150
29.1100 2489.3725
29.1200 2241.4925
29.1300 2132.7200
29.1400 1836.7200
29.1500 1856.5325
29.1600 1743.0825
29.1700 1538.3750
29.1800 1563.2200
29.1900 1358.2550
29.2000 1126.6625
29.2100 1068.3300
29.2200 1086.6525
29.2300 1091.8425
29.2400 863.3650
29.2500 823.4550
29.2600 728.4075
29.2700 676.7825
29.2800 633.0025
29.2900 781.7050
29.3000 765.0425
29.3100 748.3800
29.3200 738.1825
29.3300 780.1075
29.3400 756.4325
29.3500 816.6675
29.3600 823.0650
29.3700 892.9050
29.3800 954.6900
29.3900 683.3325
29.4000 691.2475
29.4100 769.8225
29.4200 803.1475
29.4300 856.8825
29.4400 1105.2550
29.4500 1322.9125
29.4600 1395.7925
29.4700 1543.0675
29.4800 1846.4625
29.4900 2315.4450
29.5000 2472.8275
29.5100 2553.3025
29.5200 2750.0000
29.5300 2739.3075
29.5400 2627.2400
29.5500 2554.5150
29.5600 2434.8475
29.5700 2430.3625
29.5800 2203.2075
29.5900 1886.4800
29.6000 1748.5025
29.6100 1719.8900
29.6200 1568.4400
29.6300 1389.9350
29.6400 1112.2250
29.6500 1043.0400
29.6600 786.7475
29.6700 651.4675
29.6800 671.0575
29.6900 729.8025
29.7000 850.6575
29.7100 668.8225
29.7200 526.7950
29.7300 630.4475
29.7400 614.3850
29.7500 766.6675
29.7600 758.0875
29.7700 679.4975
29.7800 808.1375
29.7900 722.3350
29.8000 786.1600
29.8100 822.3025
29.8200 880.5250
29.8300 850.0000
29.8400 848.6050
29.8500 850.0325
29.8600 1031.9450
29.8700 1006.9850
29.8800 919.3050
29.8900 1131.9575
29.9000 1107.0725
29.9100 1005.4650
29.9200 1069.3900
29.9300 1104.0725
29.9400 1154.0600
29.9500 1195.9525
29.9600 1151.3450
29.9700 1157.2825
29.9800 1032.6250
29.9900 832.0000
30.0000 827.2900
30.0100 940.7350
30.0200 825.4175
30.0300 733.3325
30.0400 741.2000
30.0500 829.4125
30.0600 778.1225
30.0700 723.1575
30.0800 797.4125
30.0900 758.9275
30.1000 666.6675
30.1100 660.2600
30.1200 571.8400
30.1300 446.0600
30.1400 605.0750
30.1500 675.5175
30.1600 775.7725
30.1700 680.8225
30.1800 650.0000
30.1900 645.0100
30.2000 594.5200
30.2100 722.1850
30.2200 575.9250
30.2300 484.5625
30.2400 500.0000
30.2500 501.2225
30.2600 528.8425
30.2700 694.2525
30.2800 823.6600
30.2900 689.1575
30.3000 566.8075
30.3100 774.9600
30.3200 672.6275
30.3300 745.2500
30.3400 685.7000
30.3500 739.0725
30.3600 1020.4075
30.3700 845.3175
30.3800 797.3325
30.3900 978.6850
30.4000 920.1400
30.4100 974.7425
30.4200 1081.0350
30.4300 1038.5475
30.4400 878.7700
30.4500 825.7600
30.4600 937.5425
30.4700 764.4100
30.4800 737.8300
30.4900 792.1625
30.5000 681.1025
30.5100 650.0000
30.5200 642.2500
30.5300 538.8475
30.5400 615.5675
30.5500 602.1875
30.5600 634.4225
30.5700 651.0850
30.5800 664.5025
30.5900 634.4100
30.6000 643.5625
30.6100 554.2750
30.6200 619.8600
30.6300 659.2450
30.6400 558.4475
30.6500 684.3850
30.6600 711.5225
30.6700 885.4200
30.6800 913.5500
30.6900 862.5275
30.7000 806.1825
30.7100 907.1850
30.7200 1016.6675
30.7300 1011.5775
30.7400 934.3475
30.7500 944.9525
30.7600 863.6525
30.7700 816.6675
30.7800 812.6800
30.7900 750.0000
30.8000 746.0475
30.8100 685.3000
30.8200 716.6675
30.8300 722.5175
30.8400 810.8400
30.8500 707.9650
30.8600 573.4050
30.8700 677.5850
30.8800 580.4725
30.8900 534.2825
30.9000 551.8900
30.9100 581.4500
30.9200 554.6850
30.9300 630.5350
30.9400 586.1175
30.9500 633.3325
30.9600 627.8125
30.9700 530.5850
30.9800 486.9800
30.9900 550.0000
31.0000 547.2900
31.0100 499.1025
31.0200 482.4400
31.0300 465.7775
31.0400 448.2275
31.0500 423.7200
31.0600 551.7550
31.0700 585.0800
31.0800 610.5850
31.0900 500.0000
31.1000 509.4650
31.1100 679.9100
31.1200 612.4075
31.1300 529.0950
31.1400 456.7475
31.1500 583.3325
31.1600 581.6625
31.1700 548.3400
31.1800 518.3200
31.1900 549.1775
31.2000 536.6050
31.2100 602.4400
31.2200 650.0000
31.2300 659.6600
31.2400 845.9950
31.2500 769.0575
31.2600 812.7050
31.2700 734.9100
31.2800 761.1800
31.2900 650.0000
31.3000 652.3250
31.3100 703.8550
31.3200 777.9650
31.3300 662.8550
31.3400 582.5750
31.3500 568.9275
31.3600 620.4150
31.3700 698.5100
31.3800 664.4425
31.3900 616.6675
31.4000 614.4675
31.4100 563.7525
31.4200 505.0700
31.4300 615.2275
31.4400 584.0500
31.4500 602.1350
31.4600 644.3425
31.4700 518.7750
31.4800 565.2700
31.4900 532.6400
31.5000 521.4975
31.5100 627.8475
31.5200 503.4075
31.5300 588.7525
31.5400 715.9925
31.5500 697.3250
31.5600 641.3075
31.5700 828.7125
31.5800 708.1375
31.5900 502.6075
31.6000 564.0775
31.6100 504.5025
31.6200 622.4175
31.6300 764.7625
31.6400 712.2525
31.6500 600.0000
31.6600 602.4875
31.6700 666.0500
31.6800 642.6400
31.6900 454.2650
31.7000 568.4825
31.7100 615.4650
31.7200 588.1050
31.7300 710.1525
31.7400 533.9200
31.7500 550.0000
31.7600 550.0000
31.7700 551.7250
31.7800 600.0000
31.7900 600.5675
31.8000 614.4175
31.8100 550.0000
31.8200 548.3375
31.8300 501.1000
31.8400 533.8775
31.8500 551.0825
31.8600 583.3325
31.8700 580.6700
31.8800 499.4725
31.8900 485.4300
31.9000 550.5200
31.9100 567.1825
31.9200 579.7550
31.9300 472.2425
31.9400 650.5025
31.9500 659.6900
31.9600 432.3450
31.9700 404.4075
31.9800 552.4275
31.9900 633.8150
32.0000 651.9075
32.0100 715.7200
32.0200 687.0800
32.0300 819.4525
32.0400 917.5875
32.0500 950.9125
32.0600 986.0425
32.0700 1082.8850
32.0800 1067.1100
32.0900 1085.0875
32.1000 1149.1325
32.1100 1112.7950
32.1200 966.6675
32.1300 965.4025
32.1400 918.3350
32.1500 984.1600
32.1600 1013.3975
32.1700 878.0750
32.1800 671.0700
32.1900 846.8325
32.2000 719.4075
32.2100 829.4600
32.2200 667.0500
32.2300 681.8175
32.2400 618.1650
32.2500 681.8525
32.2600 618.1300
32.2700 683.3325
32.2800 679.7575
32.2900 517.0200
32.3000 531.5875
32.3100 452.7575
32.3200 582.3125
32.3300 534.3425
32.3400 582.3375
32.3500 533.3325
32.3600 534.6275
32.3700 600.0000
32.3800 601.8900
32.3900 699.6900
32.4000 683.0275
32.4100 666.6675
32.4200 665.1775
32.4300 583.3325
32.4400 587.3825
32.4500 816.0975
32.4600 785.5775
32.4700 916.1150
32.4800 882.2450
32.4900 817.2025
32.5000 849.2100
32.5100 801.0375
32.5200 866.9225
32.5300 881.5775
32.5400 765.6800
32.5500 701.9375
32.5600 832.6200
32.5700 783.3325
32.5800 781.7275
32.5900 666.8925
32.6000 683.1125
32.6100 666.4500
32.6200 648.3025
32.6300 515.2100
32.6400 400.2050
32.6500 418.2625
32.6600 550.9750
32.6700 632.3775
32.6800 549.6275
32.6900 515.0250
32.7000 367.9125
32.7100 482.8125
32.7200 433.6725
32.7300 466.8325
32.7400 483.1725
32.7500 468.3900
32.7600 649.5425
32.7700 599.1100
32.7800 500.0000
32.7900 500.8375
32.8000 599.3225
32.8100 515.8800
32.8200 417.1750
32.8300 484.1900
32.8400 600.0000
32.8500 599.4300
32.8600 516.6675
32.8700 516.6675
32.8800 516.8700
32.8900 549.4175
32.9000 450.9250
32.9100 616.2250
32.9200 533.4175
32.9300 550.1600
32.9400 583.6350
32.9500 650.1425
32.9600 683.2675
32.9700 666.9175
32.9800 733.0425
32.9900 649.6225
33.0000 533.4825
33.0100 583.0150
33.0200 466.7500
33.0300 500.2950
33.0400 633.2675
33.0500 599.8300
33.0600 499.9025
33.0700 433.4125
33.0800 500.1400
33.0900 649.9650
33.1000 600.0550
33.1100 733.3450
33.1200 799.9950
33.1300 833.3225
33.1400 816.6775
33.1500 983.1900
33.1600 1033.2775
33.1700 1066.6200
33.1800 1382.8150
33.1900 1316.7925
33.2000 1316.6675
33.2100 1266.7875
33.2200 1299.9125
33.2300 1399.7075
33.2400 1250.4775
33.2500 1017.4675
33.2600 1232.5350
33.2700 1083.9250
33.2800 884.1750
33.2900 1082.4400
33.3000 1066.7450
33.3100 917.4125
33.3200 1016.1425
33.3300 834.3400
33.3400 750.4800
33.3500 700.3000
33.3600 550.9400
33.3700 583.1150
33.3800 467.4575
33.3900 549.4150
33.4000 500.3650
33.4100 533.0825
33.4200 483.7225
33.4300 565.9950
33.4400 583.1950
33.4500 550.2850
33.4600 616.0775
33.4700 567.1200
33.4800 418.0675
33.4900 449.6800
33.5000 466.5025
33.5100 433.6700
33.5200 449.8275
33.5300 548.9375
33.5400 484.0600
33.5500 466.8525
33.5600 582.0025
33.5700 484.5000
33.5800 417.4625
33.5900 581.3050
33.6000 484.5775
33.6100 466.8775
33.6200 499.5675
33.6300 516.4475
33.6400 500.2250
33.6500 500.0000
33.6600 582.1675
33.6700 616.1925
33.6800 600.2425
33.6900 517.8950
33.7000 418.1675
33.7100 482.3150
33.7200 631.0050
33.7300 600.5250
33.7400 468.8050
33.7500 581.4325
33.7600 534.1600
33.7700 664.4250
33.7800 568.3725
33.7900 484.7775
33.8000 466.9600
33.8100 450.2975
33.8200 630.0150
33.8300 535.1700
33.8400 598.7600
33.8500 616.3525
33.8600 436.8400
33.8700 449.6775
33.8800 482.6775
33.8900 483.3325
33.9000 467.0025
33.9100 515.6450
33.9200 598.2775
33.9300 583.6825
33.9400 664.9000
33.9500 682.9750
33.9600 699.6375
33.9700 879.3075
33.9800 867.0375
33.9900 1159.9225
34.0000 1003.7900
34.0100 820.8825
34.0200 751.5500
34.0300 701.1750
34.0400 846.4350
34.0500 817.4675
34.0600 946.7625
34.0700 1096.3175
34.0800 1262.5325
34.0900 1120.4250
34.1000 921.7300
34.1100 997.8700
34.1200 1064.9450
34.1300 936.8125
34.1400 706.1475
34.1500 764.8925
34.1600 896.4175
34.1700 770.2825
34.1800 766.6675
34.1900 750.4600
34.2000 636.5875
34.2100 779.1100
34.2200 718.5600
34.2300 765.2325
34.2400 588.6375
34.2500 518.6125
34.2600 613.7225
34.2700 584.3225
34.2800 421.6600
34.2900 562.1350
34.3000 534.3500
34.3100 517.1800
34.3200 613.5675
34.3300 552.0825
34.3400 469.2925
34.3500 402.1175
34.3600 448.3975
34.3700 433.8725
34.3800 465.5825
34.3900 466.6675
34.4000 498.8975
34.4100 467.7775
34.4200 466.6675
34.4300 498.8725
34.4400 500.0000
34.4500 773.6000
34.4600 638.5250
34.4700 633.3325
34.4800 649.4150
34.4900 521.3850
34.5000 548.8125
34.5100 742.8200
34.5200 733.9350
34.5300 540.6175
34.5400 469.1125
34.5500 530.8700
34.5600 725.8950
34.5700 749.3750
34.5800 637.7325
34.5900 665.4000
34.6000 570.4900
34.6100 694.8675
34.6200 571.8325
34.6300 438.5325
34.6400 577.4450
34.6500 567.3250
34.6600 566.6675
34.6700 550.6675
34.6800 565.9950
34.6900 582.6575
34.7000 615.3050
34.7100 600.6850
34.7200 791.7350
34.7300 815.9725
34.7400 864.5750
34.7500 962.4550
34.7600 886.8650
34.7700 931.2025
34.7800 949.2850
34.7900 965.9475
34.8000 1157.9875
34.8100 943.5200
34.8200 853.6600
34.8300 865.9300
34.8400 818.8875
34.8500 864.4325
34.8600 866.6675
34.8700 787.1000
34.8800 846.9675
34.8900 802.2875
34.9000 609.1975
34.9100 504.6250
34.9200 468.2175
34.9300 434.8925
34.9400 512.7475
34.9500 596.0600
34.9600 711.1200
34.9700 589.7075
34.9800 377.0800
34.9900 382.5275
35.0000 510.1900
35.0100 548.3725
35.0200 550.0000
35.0300 518.3125
35.0400 453.3075
35.0500 418.3300
35.0600 448.3300
35.0700 465.8275
35.0800 529.9575
35.0900 517.5150
35.1000 516.6675
35.1100 564.0950
35.1200 487.6400
35.1300 451.7325
35.1400 481.5925
35.1500 420.1650
35.1600 527.1825
35.1700 659.6025
35.1800 477.3150
35.1900 403.5675
35.2000 463.0825
35.2100 513.9650
35.2200 548.1900
35.2300 502.7275
35.2400 421.2325
35.2500 400.9175
35.2600 478.7225
35.2700 436.1125
35.2800 527.7500
35.2900 549.0650
35.3000 518.5450
35.3100 579.5600
35.3200 441.8650
35.3300 401.9050
35.3400 509.9700
35.3500 453.8425
35.3600 497.1050
35.3700 515.6975
35.3800 610.8225
35.3900 506.8475
35.4000 578.4200
35.4100 630.3725
35.4200 523.6050
35.4300 406.9675
35.4400 462.6675
35.4500 591.9675
35.4600 740.9225
35.4700 828.2700
35.4800 723.7875
35.4900 904.4075
35.5000 1151.2800
35.5100 1104.1200
35.5200 1131.2650
35.5300 1195.8450
35.5400 1168.7525
35.5500 932.3800
35.5600 1025.9700
35.5700 1064.5550
35.5800 1051.0600
35.5900 831.5750
35.6000 925.8500
35.6100 964.5200
35.6200 951.0775
35.6300 887.6625
35.6400 789.8525
35.6500 861.2125
35.6600 788.8100
35.6700 627.6625
35.6800 632.2300
35.6900 648.8925
35.7000 556.6750
35.7100 456.7000
35.7200 605.4550
35.7300 507.8775
35.7400 531.0725
35.7500 642.0600
35.7600 603.4150
35.7700 491.3325
35.7800 359.1775
35.7900 396.5450
35.8000 462.0425
35.8100 482.1725
35.8200 467.8300
35.8300 544.1550
35.8400 519.0125
35.8500 532.1550
35.8600 517.8475
35.8700 439.2650
35.8800 448.8100
35.8900 511.8875
35.9000 485.7325
35.9100 668.8900
35.9200 667.8750
35.9300 682.1200
35.9400 806.9350
35.9500 940.2325
35.9600 1166.1800
35.9700 1291.3925
35.9800 1284.5675
35.9900 1237.0475
36.0000 1248.7575
36.0100 1311.6800
36.0200 1409.1600
36.0300 1200.9125
36.0400 1198.7400
36.0500 1153.7925
36.0600 1011.4175
36.0700 969.2125
36.0800 1120.5600
36.0900 1010.2525
36.1000 892.3350
36.1100 1006.3425
36.1200 832.2025
36.1300 801.3000
36.1400 677.0950
36.1500 712.7425
36.1600 716.6675
36.1700 609.2150
36.1800 630.6925
36.1900 648.6750
36.2000 665.3375
36.2100 666.6675
36.2200 666.6675
36.2300 620.6950
36.2400 540.0675
36.2500 717.1175
36.2600 794.5775
36.2700 830.6125
36.2800 787.4250
36.2900 890.4200
36.3000 976.4675
36.3100 922.1750
36.3200 840.2425
36.3300 833.3325
36.3400 848.6100
36.3500 1017.9900
36.3600 1140.2050
36.3700 1027.8950
36.3800 1062.4425
36.3900 1097.1750
36.4000 1039.0000
36.4100 1018.0875
36.4200 788.0450
36.4300 614.2950
36.4400 721.8625
36.4500 870.3900
36.4600 837.6625
36.4700 742.0150
36.4800 794.1950
36.4900 739.1550
36.5000 931.0200
36.5100 782.7750
36.5200 538.6975
36.5300 638.2150
36.5400 558.8650
36.5500 534.8150
36.5600 563.6950
36.5700 597.0200
36.5800 554.4850
36.5900 489.3300
36.6000 392.3550
36.6100 368.1750
36.6200 427.2850
36.6300 493.9325
36.6400 500.0000
36.6500 545.4225
36.6600 580.2750
36.6700 568.2000
36.6800 612.0500
36.6900 525.9250
36.7000 456.1900
36.7100 510.4600
36.7200 486.4450
36.7300 453.1200
36.7400 419.7950
36.7500 461.9600
36.7600 466.6675
36.7700 511.9325
36.7800 592.0900
36.7900 464.2775
36.8000 450.0000
36.8100 450.0000
36.8200 450.0000
36.8300 555.4400
36.8400 446.2000
36.8500 418.2800
36.8600 431.7175
36.8700 478.4700
36.8800 573.5775
36.8900 553.2600
36.9000 444.7750
36.9100 448.3600
36.9200 389.9075
36.9300 383.3325
36.9400 443.3925
36.9500 615.1125
36.9600 588.3150
36.9700 538.3275
36.9800 713.3000
36.9900 598.3975
37.0000 658.2750
37.0100 891.4275
37.0200 856.7475
37.0300 700.2475
37.0400 668.3625
37.0500 651.7000
37.0600 650.0000
37.0700 635.0425
37.0800 678.1950
37.0900 698.2825
37.1000 685.0550
37.1100 668.3925
37.1200 606.9225
37.1300 495.4775
37.1400 528.1150
37.1500 607.9475
37.1600 542.0750
37.1700 533.3325
37.1800 533.3325
37.1900 488.6175
37.2000 557.8375
37.2100 477.2875
37.2200 496.4500
37.2300 485.1125
37.2400 468.4500
37.2500 555.9425
37.2600 462.5425
37.2700 375.6475
37.2800 411.2650
37.2900 505.8375
37.3000 546.3800
37.3100 475.7350
37.3200 555.7575
37.3300 551.8225
37.3400 416.4425
37.3500 518.6825
37.3600 474.0100
37.3700 511.1475
37.3800 501.8450
37.3900 559.2700
37.4000 655.5475
37.4100 548.1950
37.4200 651.7700
37.4300 711.0675
37.4400 761.0550
37.4500 811.0400
37.4600 890.6025
37.4700 944.3475
37.4800 935.2225
37.4900 874.2375
37.5000 881.4375
37.5100 839.0375
37.5200 744.7675
37.5300 718.5775
37.5400 716.6675
37.5500 805.1525
37.5600 801.9225
37.5700 711.5675
37.5800 655.7975
37.5900 679.4600
37.6000 653.8825
37.6100 694.1650
37.6200 641.1325
37.6300 648.0450
37.6400 576.4600
37.6500 551.9625
37.6600 638.1975
37.6700 650.0000
37.6800 811.5975
37.6900 759.9025
37.7000 750.0000
37.7100 882.0975
37.7200 973.3650
37.7300 880.6525
37.7400 734.6875
37.7500 833.9450
37.7600 806.0325
37.7700 770.6975
37.7800 722.7275
37.7900 702.0250
37.8000 758.5525
37.8100 532.5300
37.8200 587.7750
37.8300 673.1225
37.8400 610.2325
37.8500 746.1600
37.8600 693.6100
37.8700 595.6900
37.8800 612.5400
37.8900 616.6675
37.9000 485.3225
37.9100 452.0775
37.9200 391.6600
37.9300 456.2375
37.9400 481.2425
37.9500 454.1900
37.9600 450.0000
37.9700 435.4375
37.9800 578.9200
37.9900 483.5650
38.0000 364.8175
38.0100 393.6375
38.0200 487.2475
38.0300 456.3900
38.0400 420.9350
38.0500 387.6100
38.0600 441.4275
38.0700 420.9625
38.0800 431.1825
38.0900 476.8650
38.1000 497.8400
38.1100 543.5050
38.1200 477.5150
38.1300 524.6375
38.1400 518.8450
38.1500 545.6350
38.1600 506.5625
38.1700 514.4750
38.1800 487.7250
38.1900 468.8675
38.2000 452.2050
38.2100 493.3725
38.2200 442.1875
38.2300 375.5400
38.2400 525.5525
38.2500 506.6800
38.2600 485.5650
38.2700 497.7650
38.2800 500.0000
38.2900 427.8900
38.3000 387.8300
38.3100 426.5725
38.3200 490.9700
38.3300 442.3825
38.3400 390.1325
38.3500 469.7075
38.3600 483.3325
38.3700 483.3325
38.3800 526.4800
38.3900 633.9800
38.4000 635.6275
38.4100 561.4875
38.4200 593.0950
38.4300 614.3600
38.4400 573.6000
38.4500 552.3150
38.4600 736.5125
38.4700 723.6375
38.4800 687.9900
38.4900 841.0050
38.5000 809.3500
38.5100 943.2500
38.5200 952.3450
38.5300 1035.8975
38.5400 1092.9350
38.5500 971.2350
38.5600 921.3950
38.5700 902.3675
38.5800 1000.0575
38.5900 916.6400
38.6000 714.2925
38.6100 754.7375
38.6200 838.0475
38.6300 778.6400
38.6400 723.8650
38.6500 887.8250
38.6600 731.3025
38.6700 628.7275
38.6800 602.4175
38.6900 543.0175
38.7000 561.8150
38.7100 481.2475
38.7200 495.1300
38.7300 414.6325
38.7400 442.6700
38.7500 378.9050
38.7600 466.1675
38.7700 469.1225
38.7800 424.0500
38.7900 402.4650
38.8000 385.8025
38.8100 511.0650
38.8200 561.7100
38.8300 566.6675
38.8400 552.4875
38.8500 521.6500
38.8600 615.8575
38.8700 633.3325
38.8800 548.3650
38.8900 533.3325
38.9000 561.6375
38.9100 481.7800
38.9200 381.8050
38.9300 479.7800
38.9400 457.5950
38.9500 464.1300
38.9600 579.6725
38.9700 642.3650
38.9800 551.1825
38.9900 547.4450
39.0000 648.7575
39.0100 539.7350
39.0200 502.5675
39.0300 528.1900
39.0400 575.6050
39.0500 653.7625
39.0600 511.7700
39.0700 567.7950
39.0800 569.2600
39.0900 608.8700
39.1000 686.9850
39.1100 798.4150
39.1200 802.6125
39.1300 898.3525
39.1400 916.6675
39.1500 818.3775
39.1600 842.1100
39.1700 892.0975
39.1800 801.8025
39.1900 797.3575
39.2000 785.9800
39.2100 755.3025
39.2200 792.0300
39.2300 729.9700
39.2400 758.6700
39.2500 724.6750
39.2600 618.7175
39.2700 809.8225
39.2800 682.1950
39.2900 566.1250
39.3000 494.1000
39.3100 525.2450
39.3200 617.1300
39.3300 717.1025
39.3400 607.7200
39.3500 471.7125
39.3600 324.4675
39.3700 425.4925
39.3800 533.6350
39.3900 466.3925
39.4000 422.1400
39.4100 472.3700
39.4200 636.4700
39.4300 624.9150
39.4400 630.5800
39.4500 563.7925
39.4600 550.0000
39.4700 591.6975
39.4800 447.1575
39.4900 458.3375
39.5000 438.8950
39.5100 516.6225
39.5200 463.9500
39.5300 422.2550
39.5400 458.2700
39.5500 508.2575
39.5600 447.3725
39.5700 419.4775
39.5800 458.2175
39.5900 480.5125
39.6000 427.9675
39.6100 472.0150
39.6200 497.1650
39.6300 500.0000
39.6400 458.5300
39.6500 491.4575
39.6600 500.0000
39.6700 403.3300
39.6800 424.7500
39.6900 516.1400
39.7000 478.1475
39.7100 563.2125
39.7200 693.6350
39.7300 647.7500
39.7400 564.4400
39.7500 591.3225
39.7600 586.2300
39.7700 624.6300
39.7800 702.1375
39.7900 799.2050
39.8000 871.6750
39.8100 924.5750
39.8200 1043.2775
39.8300 1135.3600
39.8400 1053.8600
39.8500 1156.9000
39.8600 1155.8825
39.8700 1012.7925
39.8800 928.4675
39.8900 848.1075
39.9000 751.0900
39.9100 705.9275
39.9200 905.4750
39.9300 854.1425
39.9400 764.8875
39.9500 681.5750
39.9600 721.3875
39.9700 733.3325
39.9800 733.3325
39.9900 733.3325
40.0000 733.3325
