#Intensity_unit=cps
#Attenuator_coefficient=1.0000
3.0000 9193.9400
3.0100 9084.7425
3.0200 9641.7250
3.0300 8741.9700
3.0400 8411.0350
3.0500 8365.3225
3.0600 7586.1850
3.0700 8230.9650
3.0800 8550.7375
3.0900 8972.2775
3.1000 9033.4000
3.1100 8676.2375
3.1200 8167.9175
3.1300 7482.0550
3.1400 7982.0850
3.1500 8584.9975
3.1600 8664.9925
3.1700 8958.8225
3.1800 8281.8425
3.1900 7218.8600
3.2000 7239.2750
3.2100 8299.0850
3.2200 7478.0225
3.2300 7382.1600
3.2400 7708.0725
3.2500 7442.6475
3.2600 7660.5525
3.2700 7087.2600
3.2800 6693.3075
3.2900 6543.3275
3.3000 6889.6600
3.3100 7262.2500
3.3200 6929.2300
3.3300 6897.1025
3.3400 7120.9850
3.3500 7755.5050
3.3600 7796.3500
3.3700 7980.6625
3.3800 7934.4075
3.3900 7893.6875
3.4000 7499.5425
3.4100 6429.9350
3.4200 6555.2625
3.4300 6548.8875
3.4400 6366.2225
3.4500 6021.5150
3.4600 6517.2525
3.4700 7360.6025
3.4800 7221.7575
3.4900 6988.5925
3.5000 6216.6050
3.5100 6529.0625
3.5200 6415.9075
3.5300 7057.5525
3.5400 6569.9600
3.5500 5692.2150
3.5600 5858.5750
3.5700 6207.6525
3.5800 5908.2400
3.5900 5946.7100
3.6000 5546.8825
3.6100 5776.7725
3.6200 5706.9275
3.6300 5864.1250
3.6400 6173.0375
3.6500 6223.3125
3.6600 5797.0275
3.6700 5748.6925
3.6800 6495.5100
3.6900 6121.1975
3.7000 6375.2675
3.7100 6794.0025
3.7200 6524.2975
3.7300 6890.8225
3.7400 6855.7175
3.7500 7334.9475
3.7600 7051.3625
3.7700 6999.1500
3.7800 7194.4075
3.7900 7356.1250
3.8000 6977.7900
3.8100 6795.3100
3.8200 6371.3725
3.8300 6126.4225
3.8400 6464.9000
3.8500 6932.9025
3.8600 8553.5425
3.8700 8093.3775
3.8800 8369.8250
3.8900 8034.0700
3.9000 8279.4800
3.9100 9178.2325
3.9200 9177.8600
3.9300 9671.2775
3.9400 10231.9850
3.9500 11007.3025
3.9600 11282.9075
3.9700 12777.8475
3.9800 12763.4300
3.9900 12757.7425
4.0000 13681.9425
4.0100 14934.2775
4.0200 16335.1025
4.0300 18127.5050
4.0400 19155.4225
4.0500 18981.8700
4.0600 20488.8450
4.0700 21536.5650
4.0800 24368.6400
4.0900 26951.6175
4.1000 29433.5425
4.1100 31040.3400
4.1200 33530.1600
4.1300 38506.6100
4.1400 42747.5425
4.1500 46912.4575
4.1600 49548.4175
4.1700 54499.7800
4.1800 59121.2625
4.1900 62034.6525
4.2000 65600.7325
4.2100 73786.6625
4.2200 84162.8650
4.2300 93678.5000
4.2400 103424.3650
4.2500 112995.3975
4.2600 125647.1975
4.2700 135812.6225
4.2800 145187.8125
4.2900 157347.5700
4.3000 174636.0850
4.3100 185167.0525
4.3200 201164.3100
4.3300 221369.4100
4.3400 233734.3525
4.3500 247618.7175
4.3600 262478.5825
4.3700 275866.3900
4.3800 289522.8125
4.3900 298403.4175
4.4000 307178.6375
4.4100 304199.6975
4.4200 301646.7750
4.4300 292323.5375
4.4400 264234.4475
4.4500 228073.4550
4.4600 188587.7725
4.4700 150999.3400
4.4800 116109.2000
4.4900 83783.1800
4.5000 60296.9850
4.5100 45898.1175
4.5200 35237.9100
4.5300 28966.3850
4.5400 24362.8000
4.5500 21310.2550
4.5600 19568.9750
4.5700 17359.0750
4.5800 15679.4350
4.5900 15794.2575
4.6000 15009.4700
4.6100 13099.7375
4.6200 12076.0625
4.6300 11533.6875
4.6400 11039.5100
4.6500 11476.4075
4.6600 11362.5275
4.6700 10132.2450
4.6800 9621.2475
4.6900 9452.8300
4.7000 9147.4775
4.7100 8899.4625
4.7200 8429.3850
4.7300 8593.3925
4.7400 8565.5250
4.7500 8013.9700
4.7600 8046.2400
4.7700 6938.4825
4.7800 6725.4850
4.7900 6906.3000
4.8000 6390.6675
4.8100 6706.8675
4.8200 6398.9350
4.8300 5362.0725
4.8400 5670.0425
4.8500 6182.7125
4.8600 5736.8250
4.8700 5364.2125
4.8800 5682.8525
4.8900 5840.0150
4.9000 5843.1150
4.9100 5927.9475
4.9200 5897.6400
4.9300 5581.9425
4.9400 5816.9125
4.9500 5574.6150
4.9600 6032.0875
4.9700 6485.1700
4.9800 5563.2225
4.9900 5760.6125
5.0000 5676.4625
5.0100 4740.9850
5.0200 4934.5425
5.0300 5261.3925
5.0400 4888.6200
5.0500 5025.7900
5.0600 4825.0675
5.0700 4354.3050
5.0800 4412.8400
5.0900 4648.6725
5.1000 5114.5875
5.1100 5191.6275
5.1200 4798.8450
5.1300 4304.3150
5.1400 3674.4100
5.1500 3733.2950
5.1600 4255.3025
5.1700 4076.2900
5.1800 3874.6850
5.1900 4109.1950
5.2000 4189.5225
5.2100 4271.5325
5.2200 4427.4800
5.2300 4059.7225
5.2400 4054.1200
5.2500 3778.1275
5.2600 3134.3825
5.2700 3085.9975
5.2800 3256.9350
5.2900 3780.7975
5.3000 3669.7975
5.3100 3311.3325
5.3200 3568.7150
5.3300 3634.8800
5.3400 3569.8125
5.3500 3810.1425
5.3600 3498.9125
5.3700 3231.3200
5.3800 3268.3075
5.3900 3248.1025
5.4000 3486.1775
5.4100 3308.7675
5.4200 3001.1425
5.4300 2751.9325
5.4400 2646.2425
5.4500 3053.0900
5.4600 2724.3950
5.4700 2475.5700
5.4800 2696.1525
5.4900 2862.3400
5.5000 3138.8525
5.5100 3303.7725
5.5200 2739.2400
5.5300 2783.8375
5.5400 3157.5600
5.5500 2960.8300
5.5600 2854.8775
5.5700 2600.8000
5.5800 2634.1925
5.5900 2548.6050
5.6000 3119.3200
5.6100 2917.4800
5.6200 2728.0025
5.6300 2913.5900
5.6400 2775.6725
5.6500 3147.7350
5.6600 3177.3450
5.6700 3331.8575
5.6800 3194.8500
5.6900 2875.4075
5.7000 2663.8300
5.7100 2978.5875
5.7200 2981.1050
5.7300 2532.5275
5.7400 1946.0650
5.7500 2823.5525
5.7600 2989.0725
5.7700 2634.8225
5.7800 2213.8000
5.7900 2689.7925
5.8000 2542.6125
5.8100 2765.1700
5.8200 2691.3825
5.8300 2694.4300
5.8400 2405.0475
5.8500 2483.0800
5.8600 2627.4350
5.8700 2612.3250
5.8800 2593.7725
5.8900 2666.8125
5.9000 2690.4975
5.9100 2531.7200
5.9200 2124.8275
5.9300 2186.5250
5.9400 2406.4525
5.9500 2573.3625
5.9600 2458.5975
5.9700 2207.9250
5.9800 2286.0175
5.9900 2641.6525
6.0000 2408.9250
6.0100 2467.5525
6.0200 2420.4700
6.0300 2299.2525
6.0400 1929.7575
6.0500 1913.0175
6.0600 2138.6400
6.0700 2279.5650
6.0800 2415.3900
6.0900 2676.1225
6.1000 2755.4450
6.1100 2196.1825
6.1200 1946.6400
6.1300 2224.1975
6.1400 2295.1975
6.1500 2240.8725
6.1600 2259.9375
6.1700 2160.5825
6.1800 2078.9525
6.1900 2170.8600
6.2000 2572.0975
6.2100 2163.1500
6.2200 2096.3375
6.2300 2148.4125
6.2400 2289.0375
6.2500 2196.9850
6.2600 1922.9025
6.2700 1908.4500
6.2800 2111.6925
6.2900 1963.5000
6.3000 1948.6875
6.3100 2079.7450
6.3200 1905.2075
6.3300 2102.4150
6.3400 2350.5650
6.3500 2437.2025
6.3600 2201.0375
6.3700 2136.3300
6.3800 2426.8875
6.3900 2148.6575
6.4000 2063.8875
6.4100 2018.5250
6.4200 1814.2175
6.4300 2020.1625
6.4400 2299.7825
6.4500 2261.1650
6.4600 2113.1550
6.4700 2103.2000
6.4800 2525.6350
6.4900 2548.9000
6.5000 1874.7150
6.5100 1659.8875
6.5200 2011.6450
6.5300 2349.1350
6.5400 2359.6000
6.5500 2362.5750
6.5600 2000.8325
6.5700 1847.8275
6.5800 1811.3550
6.5900 2097.4050
6.6000 2384.4400
6.6100 2114.1600
6.6200 2108.5825
6.6300 2026.4175
6.6400 1602.9550
6.6500 1517.5625
6.6600 2006.5375
6.6700 2226.6050
6.6800 2137.7750
6.6900 1896.1550
6.7000 1877.8050
6.7100 2164.7650
6.7200 2302.6350
6.7300 2083.8025
6.7400 1986.0200
6.7500 1852.7500
6.7600 1795.9500
6.7700 1890.6775
6.7800 2057.9900
6.7900 1882.6075
6.8000 1914.4950
6.8100 2126.6925
6.8200 2190.9775
6.8300 2412.4100
6.8400 2663.3150
6.8500 2694.7725
6.8600 2390.2075
6.8700 2042.7325
6.8800 2263.5500
6.8900 2521.5750
6.9000 2318.2975
6.9100 2302.3600
6.9200 2149.9925
6.9300 2129.3850
6.9400 2027.4050
6.9500 2159.1250
6.9600 2330.3675
6.9700 2273.4325
6.9800 1886.8200
6.9900 1954.9225
7.0000 2294.4325
7.0100 2491.2050
7.0200 2341.9400
7.0300 2443.9300
7.0400 2489.7275
7.0500 2596.0425
7.0600 2983.8800
7.0700 3034.3150
7.0800 2928.7900
7.0900 3112.0075
7.1000 3475.5000
7.1100 3407.6950
7.1200 3779.1000
7.1300 3639.5425
7.1400 3215.5550
7.1500 3393.7900
7.1600 4125.5350
7.1700 4204.6700
7.1800 3758.3200
7.1900 3383.7400
7.2000 3136.3850
7.2100 3185.3675
7.2200 3084.7200
7.2300 3133.4025
7.2400 3241.5450
7.2500 3293.2475
7.2600 3153.7700
7.2700 3172.0450
7.2800 3000.6575
7.2900 2815.5975
7.3000 2713.2625
7.3100 2595.0325
7.3200 2493.2550
7.3300 2785.3725
7.3400 2751.4150
7.3500 2756.0400
7.3600 2471.6650
7.3700 2236.2175
7.3800 2222.6850
7.3900 2435.5050
7.4000 2524.3400
7.4100 2376.6975
7.4200 2480.5275
7.4300 2671.0450
7.4400 2375.6900
7.4500 2071.6750
7.4600 2374.9525
7.4700 2428.2300
7.4800 2258.5475
7.4900 2203.0775
7.5000 2256.9250
7.5100 2195.1150
7.5200 2294.3500
7.5300 2187.3400
7.5400 2275.0475
7.5500 2294.2650
7.5600 2265.0750
7.5700 2430.3400
7.5800 2253.6225
7.5900 1993.3575
7.6000 1925.4375
7.6100 2145.6775
7.6200 2636.4250
7.6300 2704.6175
7.6400 2344.2200
7.6500 2087.1625
7.6600 2308.3525
7.6700 2380.4975
7.6800 2158.8075
7.6900 2312.0275
7.7000 2261.6625
7.7100 2235.4200
7.7200 2012.6825
7.7300 1784.0275
7.7400 2001.9800
7.7500 2265.1550
7.7600 2110.1300
7.7700 2003.5925
7.7800 2163.2300
7.7900 2265.2600
7.8000 2410.0325
7.8100 2471.7500
7.8200 2414.8950
7.8300 2412.7200
7.8400 2502.8625
7.8500 2378.2350
7.8600 2430.9250
7.8700 2545.7400
7.8800 2568.3675
7.8900 2671.2350
7.9000 2666.5625
7.9100 2478.7375
7.9200 2530.1300
7.9300 2433.3725
7.9400 2642.2575
7.9500 2544.4550
7.9600 2713.6075
7.9700 2721.1050
7.9800 2783.9225
7.9900 2740.5025
8.0000 2789.7425
8.0100 2967.7050
8.0200 3132.1275
8.0300 3412.8200
8.0400 3317.3800
8.0500 3236.2825
8.0600 3502.8700
8.0700 3549.7575
8.0800 4149.0675
8.0900 4362.1850
8.1000 4919.9475
8.1100 5247.2275
8.1200 5814.9575
8.1300 6344.4875
8.1400 6515.6800
8.1500 7244.1925
8.1600 7923.2925
8.1700 8915.0150
8.1800 9907.3425
8.1900 11021.6700
8.2000 12940.8200
8.2100 14420.8650
8.2200 15677.2550
8.2300 17646.2350
8.2400 20804.7425
8.2500 24302.0600
8.2600 27690.0775
8.2700 31392.8425
8.2800 36532.1700
8.2900 39952.1875
8.3000 42773.6000
8.3100 47661.7325
8.3200 53095.9175
8.3300 56589.4725
8.3400 60598.7825
8.3500 65581.3175
8.3600 69281.3725
8.3700 72175.1400
8.3800 72286.6750
8.3900 70561.4325
8.4000 68746.3625
8.4100 63813.1350
8.4200 56574.7525
8.4300 48429.4500
8.4400 40096.0525
8.4500 31108.1825
8.4600 24294.3600
8.4700 19500.3425
8.4800 15889.4900
8.4900 13173.4150
8.5000 11494.9075
8.5100 10811.8600
8.5200 10481.5750
8.5300 10725.8600
8.5400 11426.8075
8.5500 12428.4650
8.5600 13588.8800
8.5700 15032.4800
8.5800 16729.7900
8.5900 18604.3175
8.6000 21056.3025
8.6100 23638.6700
8.6200 27126.6300
8.6300 30807.0875
8.6400 35497.5975
8.6500 40772.5750
8.6600 44702.4250
8.6700 48851.2850
8.6800 54913.7275
8.6900 60195.3300
8.7000 65145.6750
8.7100 69596.6225
8.7200 75334.4425
8.7300 80602.8975
8.7400 82892.6375
8.7500 84639.8275
8.7600 85115.1250
8.7700 82840.1325
8.7800 76553.4500
8.7900 67746.8125
8.8000 56530.2750
8.8100 44639.0725
8.8200 34158.9150
8.8300 25421.7425
8.8400 18381.8150
8.8500 13680.2675
8.8600 10867.4550
8.8700 9070.5575
8.8800 7462.5425
8.8900 6483.5475
8.9000 5971.4875
8.9100 5151.4575
8.9200 5074.5700
8.9300 5320.8000
8.9400 5320.1475
8.9500 5088.5300
8.9600 4881.4575
8.9700 4359.2500
8.9800 4403.1850
8.9900 4462.0875
9.0000 4439.0550
9.0100 4193.9575
9.0200 3841.2750
9.0300 3879.0850
9.0400 3961.9750
9.0500 4067.3775
9.0600 4037.4450
9.0700 3873.8050
9.0800 3719.9475
9.0900 3578.8525
9.1000 3438.0675
9.1100 3384.5925
9.1200 3315.7400
9.1300 2776.1550
9.1400 2682.3750
9.1500 2899.2475
9.1600 2936.5575
9.1700 3028.6975
9.1800 3001.3575
9.1900 2884.0575
9.2000 2757.9475
9.2100 2469.8225
9.2200 2437.7875
9.2300 2497.0775
9.2400 2558.3300
9.2500 2635.2725
9.2600 2487.1750
9.2700 2491.6200
9.2800 2296.5525
9.2900 2166.8700
9.3000 2366.9925
9.3100 2623.2850
9.3200 2454.2825
9.3300 2072.1975
9.3400 2039.1275
9.3500 2119.6275
9.3600 2171.5625
9.3700 2110.3425
9.3800 2142.2175
9.3900 2147.5975
9.4000 2120.6650
9.4100 1931.5050
9.4200 1984.4775
9.4300 2101.6100
9.4400 1946.3150
9.4500 1969.6375
9.4600 2103.2275
9.4700 1911.5475
9.4800 1918.0825
9.4900 1961.1025
9.5000 1852.5150
9.5100 1842.3250
9.5200 2130.4725
9.5300 2165.5550
9.5400 1987.8075
9.5500 2168.3275
9.5600 2211.8300
9.5700 1945.4825
9.5800 1760.0825
9.5900 1903.3425
9.6000 2112.5875
9.6100 1929.8975
9.6200 1740.6325
9.6300 1875.0300
9.6400 2011.1700
9.6500 2113.6850
9.6600 2260.4450
9.6700 2159.5575
9.6800 2218.9650
9.6900 2214.9825
9.7000 1952.8000
9.7100 1848.4100
9.7200 1898.3675
9.7300 1841.7025
9.7400 1929.2725
9.7500 2012.7700
9.7600 2069.8125
9.7700 2064.9700
9.7800 1900.9750
9.7900 1970.5500
9.8000 2340.2550
9.8100 2547.6600
9.8200 2647.5450
9.8300 2654.6075
9.8400 2763.8175
9.8500 2826.8300
9.8600 2967.0650
9.8700 3429.6650
9.8800 3405.8475
9.8900 3514.7725
9.9000 3739.3925
9.9100 4176.6825
9.9200 4697.0875
9.9300 5342.7325
9.9400 5890.4700
9.9500 6674.4925
9.9600 7680.5225
9.9700 8653.3100
9.9800 9783.6325
9.9900 10963.7125
10.0000 12295.1825
10.0100 14694.3650
10.0200 16443.5375
10.0300 17825.0750
10.0400 19747.0075
10.0500 21381.6975
10.0600 22364.5975
10.0700 23266.1600
10.0800 24770.0375
10.0900 25321.7100
10.1000 25443.4450
10.1100 25220.1875
10.1200 24068.9050
10.1300 21842.0350
10.1400 19632.6700
10.1500 16923.3450
10.1600 13892.3525
10.1700 11092.8075
10.1800 8636.8375
10.1900 6496.0850
10.2000 5311.7100
10.2100 4622.6950
10.2200 3960.4350
10.2300 3292.5325
10.2400 2883.4725
10.2500 2777.9425
10.2600 2671.6775
10.2700 2608.8300
10.2800 2533.3000
10.2900 2409.7750
10.3000 2049.9300
10.3100 1988.6550
10.3200 2101.1625
10.3300 2074.9300
10.3400 2066.9625
10.3500 2185.3925
10.3600 2075.0350
10.3700 1880.7750
10.3800 1938.8225
10.3900 2009.0525
10.4000 1917.4450
10.4100 1783.9200
10.4200 1537.4575
10.4300 1475.3800
10.4400 1682.4750
10.4500 1788.8500
10.4600 1680.4525
10.4700 1571.3850
10.4800 1616.8375
10.4900 1592.4225
10.5000 1525.2950
10.5100 1653.1075
10.5200 1588.6975
10.5300 1532.2300
10.5400 1549.1175
10.5500 1500.5750
10.5600 1387.5800
10.5700 1396.4675
10.5800 1460.4750
10.5900 1436.1500
10.6000 1410.8875
10.6100 1496.5850
10.6200 1502.7900
10.6300 1482.8950
10.6400 1528.1100
10.6500 1844.7625
10.6600 1752.2150
10.6700 1668.4625
10.6800 1767.6700
10.6900 1691.9125
10.7000 1596.3325
10.7100 1502.3575
10.7200 1521.8125
10.7300 1756.2925
10.7400 1971.1775
10.7500 1841.2350
10.7600 1776.6575
10.7700 1686.5350
10.7800 1691.6700
10.7900 1999.0500
10.8000 2265.4625
10.8100 2334.7600
10.8200 2450.8700
10.8300 2768.0475
10.8400 3369.9750
10.8500 3860.9925
10.8600 4240.1650
10.8700 4699.6900
10.8800 5282.6275
10.8900 5701.5000
10.9000 6421.2450
10.9100 7505.1875
10.9200 8477.6050
10.9300 9386.6600
10.9400 10301.1575
10.9500 10986.4850
10.9600 11947.2250
10.9700 12337.4975
10.9800 13073.9500
10.9900 14276.7675
11.0000 14207.9750
11.0100 13428.5375
11.0200 12758.9575
11.0300 11814.4050
11.0400 10532.1525
11.0500 9038.5675
11.0600 7404.0850
11.0700 6112.2750
11.0800 5094.6025
11.0900 3964.8875
11.1000 3111.8975
11.1100 2536.4825
11.1200 2071.1025
11.1300 1855.3350
11.1400 1899.0175
11.1500 1859.5650
11.1600 1787.0750
11.1700 1624.6050
11.1800 1456.9600
11.1900 1340.0550
11.2000 1327.9500
11.2100 1362.1450
11.2200 1360.9350
11.2300 1407.5925
11.2400 1393.9000
11.2500 1357.3200
11.2600 1340.2300
11.2700 1343.1325
11.2800 1496.3225
11.2900 1442.7225
11.3000 1213.1475
11.3100 1224.3850
11.3200 1104.8050
11.3300 1135.7850
11.3400 1311.2800
11.3500 1235.5525
11.3600 1152.1875
11.3700 1323.3225
11.3800 1357.6375
11.3900 1254.7575
11.4000 1261.3400
11.4100 1237.0325
11.4200 1185.1925
11.4300 1187.9425
11.4400 1105.6450
11.4500 1127.1600
11.4600 1196.5575
11.4700 1025.7200
11.4800 942.1050
11.4900 1053.4250
11.5000 972.7525
11.5100 881.8075
11.5200 877.4300
11.5300 956.8200
11.5400 965.0950
11.5500 947.9700
11.5600 955.3150
11.5700 897.1100
11.5800 906.8550
11.5900 956.3525
11.6000 876.2400
11.6100 881.0500
11.6200 938.7475
11.6300 892.6350
11.6400 766.3200
11.6500 785.9375
11.6600 945.5975
11.6700 954.7750
11.6800 922.2575
11.6900 903.1850
11.7000 879.0750
11.7100 893.2650
11.7200 919.0925
11.7300 989.5725
11.7400 946.1050
11.7500 890.2050
11.7600 960.4625
11.7700 1021.0875
11.7800 987.4800
11.7900 966.4750
11.8000 859.2350
11.8100 765.3500
11.8200 926.6125
11.8300 1024.4800
11.8400 926.9450
11.8500 970.6025
11.8600 978.0225
11.8700 889.8075
11.8800 807.4025
11.8900 745.6400
11.9000 835.3175
11.9100 959.5950
11.9200 1008.1750
11.9300 960.9400
11.9400 957.1275
11.9500 1034.5575
11.9600 967.4175
11.9700 842.0825
11.9800 864.1875
11.9900 1024.9725
12.0000 1030.7275
12.0100 931.5850
12.0200 893.2925
12.0300 795.1025
12.0400 810.6350
12.0500 808.1475
12.0600 877.8100
12.0700 995.5825
12.0800 1048.9850
12.0900 940.9150
12.1000 682.6000
12.1100 622.9075
12.1200 711.1050
12.1300 688.7575
12.1400 712.4175
12.1500 797.8325
12.1600 806.2450
12.1700 962.5500
12.1800 1002.3075
12.1900 878.5625
12.2000 843.1800
12.2100 912.3375
12.2200 969.3500
12.2300 954.6275
12.2400 928.3900
12.2500 832.7200
12.2600 887.6825
12.2700 1004.6800
12.2800 960.0425
12.2900 830.1900
12.3000 801.7300
12.3100 959.7400
12.3200 1076.4925
12.3300 1018.4050
12.3400 932.5000
12.3500 977.2650
12.3600 1006.6900
12.3700 900.7875
12.3800 912.9150
12.3900 953.9825
12.4000 943.8175
12.4100 940.9650
12.4200 901.5300
12.4300 972.7750
12.4400 930.5625
12.4500 826.3150
12.4600 839.1675
12.4700 823.0025
12.4800 745.4400
12.4900 779.6450
12.5000 807.6325
12.5100 772.5275
12.5200 865.7675
12.5300 918.6825
12.5400 814.7550
12.5500 798.6550
12.5600 830.5900
12.5700 818.4575
12.5800 831.1125
12.5900 802.0700
12.6000 753.7650
12.6100 768.2025
12.6200 816.9900
12.6300 865.7025
12.6400 887.9400
12.6500 847.6975
12.6600 838.9925
12.6700 821.8000
12.6800 786.8000
12.6900 799.2950
12.7000 770.8300
12.7100 840.5125
12.7200 983.6425
12.7300 963.4175
12.7400 905.4725
12.7500 930.7825
12.7600 887.9650
12.7700 843.0850
12.7800 866.8175
12.7900 994.0450
12.8000 979.7850
12.8100 940.7450
12.8200 1022.9075
12.8300 1057.8300
12.8400 1055.5700
12.8500 991.9725
12.8600 894.2525
12.8700 771.0675
12.8800 778.7575
12.8900 999.8925
12.9000 1238.0500
12.9100 1290.1000
12.9200 1165.8300
12.9300 1059.7200
12.9400 1328.0100
12.9500 1753.8600
12.9600 1849.9925
12.9700 1904.1425
12.9800 2208.4325
12.9900 2526.4175
13.0000 2739.0775
13.0100 2953.8150
13.0200 3228.6525
13.0300 3725.3450
13.0400 4279.0900
13.0500 4679.6275
13.0600 5109.0600
13.0700 5381.4025
13.0800 5436.3400
13.0900 5654.0900
13.1000 6142.4050
13.1100 6359.7475
13.1200 6149.3325
13.1300 5649.2650
13.1400 5426.9250
13.1500 5006.2850
13.1600 4093.9475
13.1700 3422.5450
13.1800 2924.2175
13.1900 2498.4725
13.2000 2081.9100
13.2100 1705.4975
13.2200 1360.9425
13.2300 1276.2800
13.2400 1390.4350
13.2500 1253.5600
13.2600 995.6950
13.2700 856.4800
13.2800 785.4150
13.2900 884.2700
13.3000 911.2775
13.3100 795.8100
13.3200 760.4875
13.3300 748.6000
13.3400 808.3025
13.3500 828.1700
13.3600 769.5675
13.3700 866.4275
13.3800 930.9225
13.3900 801.1750
13.4000 745.3550
13.4100 815.1875
13.4200 871.7200
13.4300 798.9800
13.4400 814.4850
13.4500 797.3075
13.4600 718.8025
13.4700 705.3000
13.4800 659.0675
13.4900 682.7600
13.5000 716.1175
13.5100 845.3025
13.5200 957.0175
13.5300 803.8900
13.5400 679.6950
13.5500 772.5950
13.5600 757.2225
13.5700 666.4775
13.5800 712.7375
13.5900 780.6375
13.6000 790.9475
13.6100 825.6700
13.6200 811.9875
13.6300 755.0825
13.6400 882.1075
13.6500 1005.3100
13.6600 865.7575
13.6700 706.9625
13.6800 718.5600
13.6900 797.8850
13.7000 888.3425
13.7100 875.2125
13.7200 772.4300
13.7300 726.8950
13.7400 783.6225
13.7500 804.9475
13.7600 747.8075
13.7700 747.6075
13.7800 712.5725
13.7900 610.3825
13.8000 621.8400
13.8100 711.5850
13.8200 710.7475
13.8300 642.6000
13.8400 676.3050
13.8500 743.1475
13.8600 776.4475
13.8700 798.2800
13.8800 763.9950
13.8900 774.7225
13.9000 785.3650
13.9100 818.4125
13.9200 896.2550
13.9300 929.2075
13.9400 872.7675
13.9500 793.7750
13.9600 726.3300
13.9700 692.0575
13.9800 725.0675
13.9900 669.1900
14.0000 579.3900
14.0100 556.5950
14.0200 578.3025
14.0300 666.4925
14.0400 766.2125
14.0500 799.2250
14.0600 787.6650
14.0700 797.8900
14.0800 874.5225
14.0900 951.7050
14.1000 1017.1450
14.1100 1017.4200
14.1200 993.8375
14.1300 1004.5825
14.1400 1036.2450
14.1500 1112.8000
14.1600 1254.0900
14.1700 1419.0675
14.1800 1560.5225
14.1900 1724.4275
14.2000 1758.1175
14.2100 1776.9950
14.2200 2079.7450
14.2300 2302.1375
14.2400 2428.7075
14.2500 2690.4575
14.2600 2800.0600
14.2700 2658.9050
14.2800 2415.9250
14.2900 2335.3200
14.3000 2217.2975
14.3100 2092.2575
14.3200 1942.8250
14.3300 1688.9125
14.3400 1631.0300
14.3500 1535.5550
14.3600 1242.6575
14.3700 1010.8650
14.3800 1039.0200
14.3900 1021.8275
14.4000 825.6100
14.4100 683.4600
14.4200 669.4200
14.4300 776.4000
14.4400 821.6025
14.4500 694.1225
14.4600 561.6025
14.4700 653.8575
14.4800 754.7575
14.4900 742.4400
14.5000 732.2300
14.5100 647.1800
14.5200 715.0200
14.5300 817.3900
14.5400 710.3275
14.5500 663.9300
14.5600 685.6700
14.5700 664.5775
14.5800 621.3400
14.5900 588.4475
14.6000 597.5050
14.6100 629.5350
14.6200 619.6950
14.6300 566.4000
14.6400 614.5475
14.6500 692.5675
14.6600 732.0025
14.6700 847.9975
14.6800 863.0225
14.6900 766.4325
14.7000 701.3325
14.7100 739.5175
14.7200 775.0700
14.7300 781.7775
14.7400 815.4175
14.7500 793.7200
14.7600 751.9125
14.7700 758.4550
14.7800 822.2725
14.7900 843.8325
14.8000 823.2275
14.8100 800.5650
14.8200 919.9700
14.8300 1101.8775
14.8400 1056.6825
14.8500 875.7950
14.8600 976.9050
14.8700 1264.4450
14.8800 1333.2225
14.8900 1348.7500
14.9000 1333.7750
14.9100 1295.1575
14.9200 1249.5950
14.9300 1238.1850
14.9400 1366.1975
14.9500 1339.3750
14.9600 1311.5975
14.9700 1207.6875
14.9800 1061.0875
14.9900 1082.4325
15.0000 964.4325
15.0100 743.6850
15.0200 712.2600
15.0300 798.6525
15.0400 848.0400
15.0500 978.9575
15.0600 970.7225
15.0700 771.4425
15.0800 711.8825
15.0900 821.7575
15.1000 909.2725
15.1100 956.8775
15.1200 982.3800
15.1300 919.8775
15.1400 924.6925
15.1500 1025.6400
15.1600 1033.4650
15.1700 966.8125
15.1800 899.2775
15.1900 802.6525
15.2000 694.3425
15.2100 604.5075
15.2200 596.0800
15.2300 640.2050
15.2400 650.2750
15.2500 535.0725
15.2600 538.1125
15.2700 602.1125
15.2800 537.1825
15.2900 496.1600
15.3000 513.0475
15.3100 468.8200
15.3200 496.6950
15.3300 548.0475
15.3400 607.1075
15.3500 575.7200
15.3600 581.0850
15.3700 671.6825
15.3800 630.6750
15.3900 599.0350
15.4000 652.7900
15.4100 664.0525
15.4200 596.2075
15.4300 616.0450
15.4400 645.1100
15.4500 657.3550
15.4600 655.2150
15.4700 638.0825
15.4800 660.0825
15.4900 762.1225
15.5000 731.9225
15.5100 616.3900
15.5200 628.9900
15.5300 756.4975
15.5400 715.5475
15.5500 552.8550
15.5600 477.7425
15.5700 510.1850
15.5800 641.0400
15.5900 649.7150
15.6000 578.5725
15.6100 470.8000
15.6200 486.7275
15.6300 510.1500
15.6400 562.1000
15.6500 647.2075
15.6600 684.7350
15.6700 708.0600
15.6800 678.7250
15.6900 674.4125
15.7000 624.1200
15.7100 518.5275
15.7200 514.2600
15.7300 535.7525
15.7400 651.3400
15.7500 757.0800
15.7600 632.9250
15.7700 552.1700
15.7800 662.3625
15.7900 744.3550
15.8000 702.3400
15.8100 708.6850
15.8200 774.1800
15.8300 775.2475
15.8400 727.0250
15.8500 757.1475
15.8600 767.5625
15.8700 775.8575
15.8800 751.2000
15.8900 663.4200
15.9000 661.0475
15.9100 848.1825
15.9200 982.5350
15.9300 864.3425
15.9400 744.1525
15.9500 813.2050
15.9600 864.9800
15.9700 846.9550
15.9800 844.4125
15.9900 783.1150
16.0000 769.5275
16.0100 823.0450
16.0200 868.2475
16.0300 908.4725
16.0400 930.1175
16.0500 806.5700
16.0600 744.9100
16.0700 802.7100
16.0800 757.8225
16.0900 676.7375
16.1000 672.4375
16.1100 613.9050
16.1200 546.9350
16.1300 579.6925
16.1400 668.4800
16.1500 614.8300
16.1600 560.2275
16.1700 551.4250
16.1800 557.1375
16.1900 603.7875
16.2000 686.4925
16.2100 700.6050
16.2200 651.9675
16.2300 622.8700
16.2400 523.9475
16.2500 522.1700
16.2600 592.7325
16.2700 605.6775
16.2800 602.8225
16.2900 613.2825
16.3000 596.2625
16.3100 590.8775
16.3200 628.7675
16.3300 641.7350
16.3400 630.5250
16.3500 597.0550
16.3600 520.3775
16.3700 584.0750
16.3800 716.0575
16.3900 754.2000
16.4000 752.8375
16.4100 649.4850
16.4200 611.0725
16.4300 589.0900
16.4400 670.5450
16.4500 794.5200
16.4600 864.6125
16.4700 920.7450
16.4800 884.9700
16.4900 884.5650
16.5000 992.1875
16.5100 1134.7325
16.5200 1193.4050
16.5300 1122.5575
16.5400 1024.8125
16.5500 956.8225
16.5600 956.1300
16.5700 950.3975
16.5800 869.0300
16.5900 830.8800
16.6000 800.7950
16.6100 773.5100
16.6200 759.4900
16.6300 681.9000
16.6400 618.8200
16.6500 693.8825
16.6600 629.7675
16.6700 575.0200
16.6800 681.3100
16.6900 711.5325
16.7000 611.9550
16.7100 563.4625
16.7200 604.8300
16.7300 706.3800
16.7400 703.8325
16.7500 647.5025
16.7600 630.5675
16.7700 683.1375
16.7800 686.5350
16.7900 585.3250
16.8000 512.6200
16.8100 493.7450
16.8200 506.1250
16.8300 506.8875
16.8400 416.8575
16.8500 398.7950
16.8600 501.8925
16.8700 508.7650
16.8800 498.2525
16.8900 573.1625
16.9000 565.0925
16.9100 554.0225
16.9200 545.9850
16.9300 519.5200
16.9400 497.7425
16.9500 482.0825
16.9600 498.7075
16.9700 559.7425
16.9800 547.1800
16.9900 499.3775
17.0000 508.1775
17.0100 543.1625
17.0200 547.3550
17.0300 583.7025
17.0400 589.6100
17.0500 605.7750
17.0600 628.7000
17.0700 562.7450
17.0800 590.7625
17.0900 668.5975
17.1000 634.8625
17.1100 609.8875
17.1200 605.1975
17.1300 605.9725
17.1400 637.7500
17.1500 599.8925
17.1600 546.0125
17.1700 553.1750
17.1800 548.6200
17.1900 534.3575
17.2000 477.6850
17.2100 373.6625
17.2200 444.5175
17.2300 539.6650
17.2400 492.4325
17.2500 478.1650
17.2600 540.3650
17.2700 570.5750
17.2800 520.8575
17.2900 578.7875
17.3000 653.9800
17.3100 634.2050
17.3200 500.2975
17.3300 429.2025
17.3400 479.6225
17.3500 551.3375
17.3600 579.1325
17.3700 535.5500
17.3800 488.6325
17.3900 459.7200
17.4000 463.3250
17.4100 506.1950
17.4200 508.9125
17.4300 465.9375
17.4400 480.1425
17.4500 522.8875
17.4600 569.0275
17.4700 647.7075
17.4800 660.6650
17.4900 553.6500
17.5000 567.7000
17.5100 581.5275
17.5200 534.7175
17.5300 488.2750
17.5400 512.9500
17.5500 533.9725
17.5600 576.4450
17.5700 611.5625
17.5800 589.9425
17.5900 614.5650
17.6000 625.0400
17.6100 649.7550
17.6200 560.9975
17.6300 493.1250
17.6400 546.4200
17.6500 493.0900
17.6600 482.1350
17.6700 584.5250
17.6800 620.6275
17.6900 513.7425
17.7000 562.8275
17.7100 595.2625
17.7200 495.9450
17.7300 456.4400
17.7400 484.6875
17.7500 481.2475
17.7600 522.6800
17.7700 632.7025
17.7800 619.0200
17.7900 544.4825
17.8000 588.8875
17.8100 699.4200
17.8200 639.8675
17.8300 564.8075
17.8400 543.8400
17.8500 504.6550
17.8600 549.2350
17.8700 607.0600
17.8800 522.5825
17.8900 568.7050
17.9000 822.7650
17.9100 875.2775
17.9200 805.3900
17.9300 955.9025
17.9400 1101.0675
17.9500 1074.9800
17.9600 1022.3625
17.9700 1155.8875
17.9800 1271.7725
17.9900 1342.6575
18.0000 1318.8575
18.0100 1244.3600
18.0200 1273.2425
18.0300 1335.4525
18.0400 1254.1725
18.0500 1258.5125
18.0600 1346.9750
18.0700 1327.3650
18.0800 1181.1250
18.0900 970.5050
18.1000 902.2050
18.1100 978.4375
18.1200 878.3300
18.1300 730.0350
18.1400 719.2750
18.1500 798.4175
18.1600 740.3150
18.1700 597.5125
18.1800 556.9225
18.1900 671.1550
18.2000 668.3325
18.2100 639.9175
18.2200 595.5025
18.2300 601.6800
18.2400 698.5025
18.2500 664.9425
18.2600 610.8750
18.2700 570.7350
18.2800 505.8900
18.2900 552.3150
18.3000 574.5225
18.3100 527.8950
18.3200 612.3950
18.3300 677.7400
18.3400 658.7225
18.3500 553.0275
18.3600 607.5100
18.3700 674.5500
18.3800 676.1975
18.3900 577.7400
18.4000 482.7050
18.4100 504.1925
18.4200 504.0625
18.4300 517.0575
18.4400 525.4375
18.4500 503.6750
18.4600 503.5450
18.4700 588.3975
18.4800 670.1175
18.4900 618.2275
18.5000 667.7550
18.5100 624.2850
18.5200 591.5950
18.5300 550.3000
18.5400 545.8475
18.5500 482.9175
18.5600 463.2550
18.5700 517.1800
18.5800 532.4225
18.5900 525.4100
18.6000 590.5625
18.6100 536.2000
18.6200 548.9475
18.6300 557.6250
18.6400 542.2175
18.6500 527.2300
18.6600 509.3625
18.6700 559.0575
18.6800 556.9575
18.6900 554.3000
18.7000 580.3400
18.7100 658.7550
18.7200 746.8450
18.7300 587.0150
18.7400 531.7825
18.7500 605.0725
18.7600 637.5250
18.7700 611.9600
18.7800 600.0325
18.7900 673.2675
18.8000 661.4025
18.8100 635.6925
18.8200 709.9300
18.8300 681.6725
18.8400 702.1500
18.8500 781.6025
18.8600 824.9500
18.8700 849.8950
18.8800 912.0900
18.8900 925.7050
18.9000 905.3275
18.9100 908.0950
18.9200 837.6225
18.9300 759.5100
18.9400 725.0225
18.9500 727.9925
18.9600 740.2575
18.9700 660.6275
18.9800 610.6050
18.9900 630.6175
19.0000 672.5950
19.0100 600.9725
19.0200 538.2875
19.0300 600.3925
19.0400 614.4400
19.0500 562.9875
19.0600 560.9425
19.0700 609.2525
19.0800 610.4925
19.0900 632.1925
19.1000 656.6275
19.1100 694.0425
19.1200 664.5250
19.1300 711.2475
19.1400 822.6125
19.1500 737.1250
19.1600 676.1300
19.1700 640.5925
19.1800 639.3625
19.1900 734.0925
19.2000 760.6600
19.2100 792.0925
19.2200 886.7700
19.2300 967.9600
19.2400 1031.0850
19.2500 1017.2950
19.2600 1186.8100
19.2700 1394.7175
19.2800 1400.4050
19.2900 1435.1500
19.3000 1575.0900
19.3100 1786.2675
19.3200 1959.9075
19.3300 2204.9275
19.3400 2406.2125
19.3500 2710.0425
19.3600 2920.8925
19.3700 3015.9400
19.3800 3123.8875
19.3900 3221.9125
19.4000 3155.4500
19.4100 3033.8550
19.4200 2985.4425
19.4300 2676.6425
19.4400 2215.9425
19.4500 2086.7950
19.4600 1841.4750
19.4700 1495.1850
19.4800 1458.4400
19.4900 1287.3000
19.5000 1103.4700
19.5100 1036.3925
19.5200 984.6475
19.5300 923.4975
19.5400 847.5250
19.5500 714.4900
19.5600 709.9175
19.5700 719.2975
19.5800 704.3825
19.5900 741.7000
19.6000 679.2225
19.6100 647.3500
19.6200 662.0675
19.6300 641.8000
19.6400 707.7650
19.6500 701.7675
19.6600 673.1250
19.6700 581.7925
19.6800 500.3875
19.6900 567.0025
19.7000 577.3400
19.7100 537.7750
19.7200 556.5525
19.7300 661.5100
19.7400 620.4750
19.7500 526.7275
19.7600 531.8825
19.7700 503.4575
19.7800 504.6650
19.7900 570.8150
19.8000 610.8000
19.8100 647.9050
19.8200 530.3425
19.8300 481.4200
19.8400 593.6625
19.8500 692.6650
19.8600 647.5875
19.8700 591.8075
19.8800 546.7950
19.8900 513.7700
19.9000 569.8175
19.9100 636.0700
19.9200 624.5875
19.9300 602.2950
19.9400 573.8875
19.9500 535.3225
19.9600 568.4100
19.9700 607.7075
19.9800 628.8150
19.9900 506.6275
20.0000 529.2750
20.0100 673.9100
20.0200 750.9475
20.0300 695.4500
20.0400 778.9825
20.0500 867.2350
20.0600 839.5550
20.0700 944.8725
20.0800 977.8225
20.0900 988.9900
20.1000 1133.3675
20.1100 1222.2275
20.1200 1305.5350
20.1300 1433.2675
20.1400 1483.4375
20.1500 1427.6500
20.1600 1594.1600
20.1700 1794.2475
20.1800 1949.6525
20.1900 2022.5900
20.2000 1844.8225
20.2100 1782.9550
20.2200 1789.6800
20.2300 1704.5900
20.2400 1795.6575
20.2500 1500.5350
20.2600 1400.0000
20.2700 1345.1275
20.2800 1227.8500
20.2900 1167.3600
20.3000 1066.6675
20.3100 1055.7275
20.3200 956.8150
20.3300 794.5400
20.3400 783.3325
20.3500 783.3325
20.3600 816.0225
20.3700 877.8900
20.3800 801.3950
20.3900 661.2325
20.4000 671.7225
20.4100 673.2550
20.4200 610.4425
20.4300 688.3375
20.4400 711.6800
20.4500 650.4400
20.4600 676.1175
20.4700 767.5975
20.4800 737.7700
20.4900 795.1000
20.5000 733.8375
20.5100 721.5325
20.5200 729.0175
20.5300 660.7475
20.5400 720.9225
20.5500 778.5375
20.5600 727.9725
20.5700 770.2350
20.5800 894.0375
20.5900 889.9275
20.6000 849.3650
20.6100 963.4225
20.6200 1144.0025
20.6300 1156.0050
20.6400 1213.2275
20.6500 1388.6550
20.6600 1362.7775
20.6700 1363.0325
20.6800 1549.2600
20.6900 1609.8550
20.7000 1656.0650
20.7100 1723.3625
20.7200 1974.8725
20.7300 2025.9800
20.7400 1861.3850
20.7500 1960.8475
20.7600 2300.2100
20.7700 2500.8575
20.7800 2571.9750
20.7900 2899.9625
20.8000 3085.1250
20.8100 3048.1825
20.8200 3106.1700
20.8300 3167.2325
20.8400 3308.0850
20.8500 3190.4925
20.8600 3117.6400
20.8700 3057.2025
20.8800 2874.6700
20.8900 2495.6450
20.9000 2245.8125
20.9100 2048.9375
20.9200 1690.6425
20.9300 1508.5250
20.9400 1181.3725
20.9500 1019.9425
20.9600 849.2300
20.9700 720.7325
20.9800 771.8450
20.9900 778.1600
21.0000 751.1575
21.0100 726.9975
21.0200 755.1625
21.0300 730.5675
21.0400 680.9150
21.0500 755.1475
21.0600 751.2350
21.0700 737.2250
21.0800 747.3850
21.0900 682.0600
21.1000 716.6675
21.1100 696.1775
21.1200 660.2350
21.1300 662.8800
21.1400 637.1050
21.1500 678.2275
21.1600 651.3650
21.1700 626.8600
21.1800 660.1850
21.1900 668.0700
21.2000 658.7500
21.2100 701.4300
21.2200 661.5925
21.2300 655.0700
21.2400 666.6675
21.2500 651.4825
21.2600 672.2975
21.2700 784.8400
21.2800 739.9025
21.2900 686.4000
21.3000 636.8275
21.3100 728.6550
21.3200 873.5850
21.3300 951.5850
21.3400 946.8025
21.3500 1011.6475
21.3600 1020.0550
21.3700 1046.6275
21.3800 1060.0650
21.3900 1225.0050
21.4000 1258.3500
21.4100 1254.9150
21.4200 1378.3450
21.4300 1386.6025
21.4400 1463.2100
21.4500 1528.3575
21.4600 1501.7550
21.4700 1471.6325
21.4800 1488.2950
21.4900 1435.5500
21.5000 1228.8450
21.5100 1065.3550
21.5200 968.5000
21.5300 888.8700
21.5400 783.3325
21.5500 788.2650
21.5600 780.2900
21.5700 733.3325
21.5800 738.2525
21.5900 750.0000
21.6000 735.2700
21.6100 675.4700
21.6200 601.9625
21.6300 571.5650
21.6400 598.0125
21.6500 628.4450
21.6600 602.0150
21.6700 576.4275
21.6800 614.6275
21.6900 640.2575
21.7000 587.4650
21.7100 540.9800
21.7200 634.0075
21.7300 711.8125
21.7400 685.4500
21.7500 659.6900
21.7600 731.7450
21.7700 845.1625
21.7800 799.5050
21.7900 745.6350
21.8000 831.1375
21.8100 876.3050
21.8200 885.5550
21.8300 864.4325
21.8400 933.6450
21.8500 1035.8750
21.8600 1126.5150
21.8700 1257.3025
21.8800 1287.9300
21.8900 1164.0325
21.9000 995.0875
21.9100 947.7625
21.9200 1066.6675
21.9300 1023.7575
21.9400 930.9575
21.9500 1014.2575
21.9600 1090.5400
21.9700 997.5850
21.9800 995.3650
21.9900 909.4825
22.0000 919.1200
22.0100 854.9350
22.0200 811.7075
22.0300 925.8550
22.0400 1033.3325
22.0500 1052.1975
22.0600 1010.4800
22.0700 769.2125
22.0800 723.9275
22.0900 723.4925
22.1000 802.1100
22.1100 807.7900
22.1200 690.6275
22.1300 676.0300
22.1400 676.6150
22.1500 649.3775
22.1600 733.3325
22.1700 719.3400
22.1800 655.3750
22.1900 597.3000
22.2000 614.7275
22.2100 557.3725
22.2200 565.8325
22.2300 636.0850
22.2400 604.6350
22.2500 602.7775
22.2600 571.2925
22.2700 615.6800
22.2800 681.5325
22.2900 628.7200
22.3000 593.6250
22.3100 537.9375
22.3200 559.2000
22.3300 601.7150
22.3400 645.4100
22.3500 605.8125
22.3600 583.7400
22.3700 702.9325
22.3800 634.6500
22.3900 595.6950
22.4000 698.4050
22.4100 627.1950
22.4200 562.1100
22.4300 577.3125
22.4400 645.4525
22.4500 619.7025
22.4600 615.1075
22.4700 700.0000
22.4800 713.5925
22.4900 768.1050
22.5000 803.1000
22.5100 771.1850
22.5200 805.9000
22.5300 862.1575
22.5400 831.9800
22.5500 792.3350
22.5600 870.6225
22.5700 1043.6175
22.5800 1139.1050
22.5900 1177.5825
22.6000 1156.9775
22.6100 1284.5650
22.6200 1284.1575
22.6300 1127.6700
22.6400 1053.2800
22.6500 963.1750
22.6600 843.3875
22.6700 974.5025
22.6800 1151.1125
22.6900 1146.7150
22.7000 977.8200
22.7100 876.7800
22.7200 762.2400
22.7300 696.9225
22.7400 572.0950
22.7500 695.1375
22.7600 826.9750
22.7700 685.8250
22.7800 586.7950
22.7900 558.7950
22.8000 605.3000
22.8100 649.1125
22.8200 604.3850
22.8300 656.0875
22.8400 757.9150
22.8500 689.6175
22.8600 627.8100
22.8700 808.7250
22.8800 842.0500
22.8900 862.3125
22.9000 845.6500
22.9100 872.4450
22.9200 1009.3825
22.9300 1061.6475
22.9400 935.0050
22.9500 806.2725
22.9600 927.7475
22.9700 894.4275
22.9800 1164.1400
22.9900 1334.4925
23.0000 1403.1825
23.0100 1308.0600
23.0200 1257.5425
23.0300 1239.1600
23.0400 1417.1600
23.0500 1436.6675
23.0600 1307.1850
23.0700 1174.7800
23.0800 1197.0025
23.0900 1299.1850
23.1000 1165.8850
23.1100 1066.6675
23.1200 1053.9000
23.1300 991.1575
23.1400 908.1725
23.1500 879.0900
23.1600 875.1450
23.1700 874.5950
23.1800 778.8500
23.1900 720.8925
23.2000 716.4475
23.2100 691.9700
23.2200 779.3050
23.2300 782.9975
23.2400 683.3325
23.2500 653.9325
23.2600 558.2750
23.2700 583.6300
23.2800 745.8950
23.2900 774.9675
23.3000 716.5725
23.3100 616.6675
23.3200 583.3075
23.3300 537.4875
23.3400 679.1925
23.3500 587.5675
23.3600 529.0700
23.3700 608.3700
23.3800 575.0450
23.3900 541.7200
23.4000 566.2950
23.4100 708.4050
23.4200 629.6825
23.4300 491.4025
23.4400 611.9700
23.4500 700.6300
23.4600 558.2200
23.4700 595.6500
23.4800 616.9275
23.4900 566.6675
23.5000 558.4800
23.5100 521.0675
23.5200 483.3325
23.5300 524.1325
23.5400 678.5300
23.5500 770.7375
23.5600 746.7300
23.5700 661.7725
23.5800 762.1750
23.5900 751.3500
23.6000 587.8500
23.6100 586.4100
23.6200 704.0425
23.6300 773.1875
23.6400 885.4750
23.6500 687.3625
23.6600 728.1700
23.6700 800.5875
23.6800 737.9525
23.6900 687.9650
23.7000 666.0275
23.7100 724.6725
23.7200 714.0125
23.7300 643.9375
23.7400 811.2625
23.7500 896.0150
23.7600 851.4825
23.7700 757.9550
23.7800 783.3325
23.7900 755.5525
23.8000 662.7025
23.8100 701.4800
23.8200 795.4625
23.8300 535.0550
23.8400 457.0175
23.8500 541.2200
23.8600 586.3600
23.8700 669.6725
23.8800 686.1725
23.8900 541.1850
23.9000 570.5875
23.9100 587.2500
23.9200 611.7400
23.9300 653.9075
23.9400 686.1900
23.9500 785.1025
23.9600 907.7925
23.9700 925.5500
23.9800 868.9025
23.9900 809.3800
24.0000 973.2725
24.0100 1061.6225
24.0200 1096.1300
24.0300 1091.0650
24.0400 1151.4225
24.0500 1235.8075
24.0600 1175.7175
24.0700 1293.5725
24.0800 1224.3550
24.0900 1253.8400
24.1000 1282.0100
24.1100 1386.9775
24.1200 1581.9775
24.1300 1633.3325
24.1400 1572.2300
24.1500 1336.1500
24.1600 1221.9025
24.1700 1175.7200
24.1800 1142.3975
24.1900 1112.8700
24.2000 1077.2400
24.2100 996.2100
24.2200 960.6250
24.2300 894.6750
24.2400 899.3475
24.2500 779.5625
24.2600 762.9000
24.2700 765.0525
24.2800 805.3900
24.2900 736.6275
24.3000 614.5800
24.3100 535.0150
24.3200 449.6550
24.3300 359.4975
24.3400 491.0675
24.3500 655.7075
24.3600 733.3325
24.3700 718.4500
24.3800 666.6675
24.3900 666.6675
24.4000 655.5425
24.4100 590.7425
24.4200 511.0975
24.4300 572.1700
24.4400 642.6175
24.4500 609.2925
24.4600 609.1100
24.4700 688.9650
24.4800 642.6525
24.4900 620.3350
24.5000 633.3325
24.5100 611.3675
24.5200 547.9600
24.5300 596.3475
24.5400 557.7975
24.5500 463.0225
24.5600 460.9175
24.5700 510.9050
24.5800 550.0000
24.5900 579.0150
24.6000 665.2200
24.6100 589.1450
24.6200 539.1575
24.6300 507.2200
24.6400 533.3325
24.6500 554.9400
24.6600 608.1550
24.6700 527.4450
24.6800 573.8425
24.6900 625.0875
24.7000 716.6675
24.7100 698.7900
24.7200 615.4775
24.7300 550.0000
24.7400 539.3125
24.7500 514.2350
24.7600 570.2200
24.7700 586.8825
24.7800 628.3650
24.7900 733.3325
24.8000 719.1850
24.8100 698.4625
24.8200 809.6100
24.8300 772.7600
24.8400 719.2525
24.8500 680.7300
24.8600 729.8225
24.8700 748.2325
24.8800 817.6250
24.8900 640.3300
24.9000 645.7000
24.9100 573.6475
24.9200 617.4300
24.9300 700.7425
24.9400 749.2800
24.9500 697.2250
24.9600 753.4700
24.9700 763.2025
24.9800 743.0800
24.9900 709.7550
25.0000 693.6900
25.0100 747.1250
25.0200 793.1125
25.0300 783.8625
25.0400 853.4350
25.0500 904.4025
25.0600 1046.5725
25.0700 1084.6650
25.0800 1273.0800
25.0900 1277.7100
25.1000 1480.6825
25.1100 1569.3550
25.1200 1480.6075
25.1300 1644.1550
25.1400 1826.8425
25.1500 1866.6675
25.1600 1853.1325
25.1700 1864.2100
25.1800 2096.4150
25.1900 1976.2150
25.2000 1840.2325
25.2100 1919.8850
25.2200 1853.2350
25.2300 1736.2775
25.2400 1459.8850
25.2500 1396.7750
25.2600 1459.8675
25.2700 1203.3025
25.2800 1119.9925
25.2900 1230.0550
25.3000 1030.1475
25.3100 813.3475
25.3200 786.7375
25.3300 756.5125
25.3400 826.8500
25.3500 697.0025
25.3600 566.4925
25.3700 649.8050
25.3800 710.0875
25.3900 663.6200
25.4000 573.4900
25.4100 549.7200
25.4200 603.5750
25.4300 550.0000
25.4400 566.3225
25.4500 630.0725
25.4600 619.9225
25.4700 639.8375
25.4800 686.1500
25.4900 776.3950
25.5000 787.5175
25.5100 644.0250
25.5200 556.4600
25.5300 570.4300
25.5400 519.8875
25.5500 555.8575
25.5600 646.7875
25.5700 620.4975
25.5800 573.0775
25.5900 596.8000
25.6000 586.5300
25.6100 612.7675
25.6200 673.0425
25.6300 706.3675
25.6400 730.1550
25.6500 716.6675
25.6600 710.3250
25.6700 699.1650
25.6800 795.1275
25.6900 919.8250
25.7000 901.7950
25.7100 757.2175
25.7200 763.8450
25.7300 960.3850
25.7400 933.3325
25.7500 942.7300
25.7600 958.3075
25.7700 899.9825
25.7800 1135.3850
25.7900 1157.4725
25.8000 934.2225
25.8100 1074.0125
25.8200 1048.8475
25.8300 1107.3725
25.8400 1066.6675
25.8500 1075.9375
25.8600 1095.0675
25.8700 993.8375
25.8800 948.2025
25.8900 863.5925
25.9000 865.3425
25.9100 951.7200
25.9200 999.6725
25.9300 834.7200
25.9400 754.4600
25.9500 715.2375
25.9600 780.2900
25.9700 778.8225
25.9800 839.4025
25.9900 848.4850
26.0000 754.5625
26.0100 684.8900
26.0200 610.6325
26.0300 625.5200
26.0400 837.7300
26.0500 915.3050
26.0600 839.3350
26.0700 899.6275
26.0800 1050.0000
26.0900 1026.0975
26.1000 919.6500
26.1100 986.9625
26.1200 1221.4325
26.1300 1163.6950
26.1400 1152.9675
26.1500 1184.4400
26.1600 1260.7500
26.1700 1292.4100
26.1800 1584.3650
26.1900 1651.9400
26.2000 1612.7450
26.2100 1764.6850
26.2200 1836.2650
26.2300 1870.4975
26.2400 1981.2875
26.2500 2017.8825
26.2600 1843.3425
26.2700 1733.3325
26.2800 1756.5900
26.2900 1878.2775
26.3000 1892.7525
26.3100 1682.6350
26.3200 1620.2300
26.3300 1696.4650
26.3400 1643.2250
26.3500 1798.2075
26.3600 1515.5225
26.3700 1372.9500
26.3800 1469.0100
26.3900 1382.8375
26.4000 1265.7275
26.4100 1105.7025
26.4200 1119.0950
26.4300 1044.3125
26.4400 1019.5050
26.4500 987.9750
26.4600 775.1575
26.4700 839.2775
26.4800 902.0250
26.4900 655.3950
26.5000 630.9500
26.5100 814.2350
26.5200 930.2000
26.5300 735.9950
26.5400 649.8875
26.5500 586.2125
26.5600 688.9100
26.5700 722.2350
26.5800 736.1025
26.5900 658.3400
26.6000 591.7275
26.6100 483.2675
26.6200 572.1925
26.6300 597.2425
26.6400 605.3675
26.6500 719.4175
26.6600 719.6050
26.6700 633.5525
26.6800 541.7875
26.6900 516.3975
26.7000 589.0850
26.7100 508.8150
26.7200 413.2550
26.7300 563.9500
26.7400 558.1350
26.7500 613.5375
26.7600 661.7075
26.7700 558.0975
26.7800 589.2225
26.7900 560.2375
26.8000 708.0575
26.8100 741.9550
26.8200 710.7100
26.8300 731.9125
26.8400 576.6925
26.8500 727.3275
26.8600 772.6900
26.8700 724.6350
26.8800 758.7100
26.8900 703.4275
26.9000 638.6200
26.9100 669.3050
26.9200 685.9675
26.9300 694.7375
26.9400 679.8000
26.9500 742.1325
26.9600 710.4725
26.9700 795.4200
26.9800 923.9025
26.9900 819.8100
27.0000 1006.2625
27.0100 957.7900
27.0200 979.2575
27.0300 928.7900
27.0400 1287.3400
27.0500 1387.1000
27.0600 1334.6975
27.0700 1441.0475
27.0800 1488.4675
27.0900 1552.5500
27.1000 1760.2350
27.1100 1834.5475
27.1200 1961.3875
27.1300 2182.8625
27.1400 2534.7500
27.1500 2442.3875
27.1600 2417.7325
27.1700 2559.6600
27.1800 2764.6525
27.1900 2601.9550
27.2000 2787.4175
27.2100 2754.3475
27.2200 2971.6825
27.2300 2954.9350
27.2400 2704.9975
27.2500 2740.8175
27.2600 2783.3325
27.2700 2738.5750
27.2800 2458.5100
27.2900 2343.9250
27.3000 2492.5775
27.3100 2425.3050
27.3200 2256.2150
27.3300 2080.3100
27.3400 1944.5550
27.3500 1794.5925
27.3600 1642.1825
27.3700 1504.8875
27.3800 1518.6950
27.3900 1394.3625
27.4000 1142.3525
27.4100 1000.0000
27.4200 978.1925
27.4300 859.6750
27.4400 907.0100
27.4500 857.2300
27.4600 873.5350
27.4700 731.0775
27.4800 797.4875
27.4900 671.3675
27.5000 607.1675
27.5100 661.9225
27.5200 735.7150
27.5300 738.1200
27.5400 664.2950
27.5500 657.1025
27.5600 681.0925
27.5700 545.4325
27.5800 428.4425
27.5900 504.7025
27.6000 542.7200
27.6100 595.3150
27.6200 573.6800
27.6300 604.9975
27.6400 537.9925
27.6500 559.6900
27.6600 537.5575
27.6700 652.7650
27.6800 578.2300
27.6900 668.4675
27.7000 762.5975
27.7100 637.9325
27.7200 648.3025
27.7300 547.0825
27.7400 640.1950
27.7500 692.4650
27.7600 752.2775
27.7700 757.5700
27.7800 684.1100
27.7900 587.8650
27.8000 637.0225
27.8100 771.1825
27.8200 790.9875
27.8300 717.5900
27.8400 616.6675
27.8500 618.9075
27.8600 651.2225
27.8700 753.2750
27.8800 675.5775
27.8900 737.7800
27.9000 771.1050
27.9100 791.1400
27.9200 748.8075
27.9300 867.6525
27.9400 976.7275
27.9500 926.7400
27.9600 907.4650
27.9700 1084.1825
27.9800 1204.3700
27.9900 1257.3250
28.0000 1414.4900
28.0100 1400.0000
28.0200 1402.1675
28.0300 1468.6050
28.0400 1818.8275
28.0500 1818.2450
28.0600 1742.4825
28.0700 1938.1375
28.0800 2102.6200
28.0900 2246.1650
28.1000 2318.3925
28.1100 2233.7075
28.1200 2337.2450
28.1300 2254.2425
28.1400 2272.7475
28.1500 2174.6425
28.1600 1976.8025
28.1700 1822.9800
28.1800 1877.1700
28.1900 1926.9425
28.2000 1729.0125
28.2100 1427.0000
28.2200 1139.5825
28.2300 1095.7750
28.2400 1283.4000
28.2500 1139.7475
28.2600 943.8000
28.2700 879.3775
28.2800 741.5650
28.2900 787.6775
28.3000 718.4450
28.3100 845.9100
28.3200 843.2000
28.3300 1017.0400
28.3400 883.7400
28.3500 746.3850
28.3600 587.8550
28.3700 504.0400
28.3800 543.4100
28.3900 618.6775
28.4000 631.3275
28.4100 620.6725
28.4200 650.0000
28.4300 642.0225
28.4400 571.3925
28.4500 479.3625
28.4600 481.7050
28.4700 702.8250
28.4800 592.1075
28.4900 545.1475
28.5000 627.4400
28.5100 581.3725
28.5200 578.4025
28.5300 668.6175
28.5400 669.7000
28.5500 566.6675
28.5600 576.3625
28.5700 648.0650
28.5800 621.7500
28.5900 548.7450
28.6000 664.7450
28.6100 634.6550
28.6200 516.6675
28.6300 520.4850
28.6400 557.6200
28.6500 618.5675
28.6600 639.0225
28.6700 689.0100
28.6800 737.1100
28.6900 749.7100
28.7000 633.5850
28.7100 761.0400
28.7200 701.6950
28.7300 585.2000
28.7400 603.7250
28.7500 637.0500
28.7600 674.0850
28.7700 718.5325
28.7800 612.9200
28.7900 712.9825
28.8000 690.6825
28.8100 759.1650
28.8200 826.0175
28.8300 764.8425
28.8400 757.2825
28.8500 829.3800
28.8600 935.1450
28.8700 950.0000
28.8800 948.1975
28.8900 942.3300
28.9000 1059.7450
28.9100 1393.3875
28.9200 1216.0775
28.9300 1360.6925
28.9400 1462.4450
28.9500 1579.0825
28.9600 1690.4100
28.9700 1753.5300
28.9800 1788.6175
28.9900 1886.0350
29.0000 2349.1050
29.0100 2486.8300
29.0200 2520.1550
29.0300 2543.0400
29.0400 2481.5975
29.0500 2447.6225
29.0600 2307.5125
29.0700 2533.8950
29.0800 2671.3025
29.0900 2576.9525
29.1000 2663.2475
29.1100 2624.8050
29.1200 2539.7900
29.1300 2451.6975
29.1400 2481.9050
29.1500 2576.1350
29.1600 2199.8200
29.1700 2031.5150
29.1800 1838.1725
29.1900 1591.6925
29.2000 1658.3275
29.2100 1548.4025
29.2200 1233.3325
29.2300 1251.5375
29.2400 1401.8100
29.2500 1243.6175
29.2600 1038.2600
29.2700 1080.0575
29.2800 1043.4650
29.2900 968.6675
29.3000 839.8350
29.3100 895.1375
29.3200 851.6175
29.3300 855.3800
29.3400 743.5675
29.3500 699.3725
29.3600 835.6025
29.3700 700.0000
29.3800 709.5475
29.3900 807.9350
29.4000 888.0825
29.4100 928.5975
29.4200 878.6100
29.4300 842.7525
29.4400 942.7275
29.4500 1033.3325
29.4600 1052.0200
29.4700 1234.8875
29.4800 1256.1950
29.4900 1324.3900
29.5000 1412.3225
29.5100 1539.4775
29.5200 1613.7850
29.5300 1743.8900
29.5400 1697.0425
29.5500 1816.6225
29.5600 1662.1175
29.5700 1802.9700
29.5800 2003.0125
29.5900 2042.3450
29.6000 2122.8475
29.6100 2022.6400
29.6200 2056.5250
29.6300 1774.4225
29.6400 1692.2175
29.6500 1758.2300
29.6600 1474.9700
29.6700 1222.5400
29.6800 1281.8700
29.6900 1275.4250
29.7000 1349.2025
29.7100 1140.5450
29.7200 872.4550
29.7300 924.6775
29.7400 849.1550
29.7500 1013.7975
29.7600 964.7450
29.7700 760.9650
29.7800 709.9500
29.7900 812.4150
29.8000 756.7750
29.8100 644.3650
29.8200 588.9500
29.8300 657.0000
29.8400 736.1250
29.8500 766.6675
29.8600 773.6050
29.8700 855.5325
29.8800 915.2875
29.8900 905.5000
29.9000 966.6675
29.9100 958.4700
29.9200 866.6675
29.9300 868.0250
29.9400 887.3950
29.9500 940.0800
29.9600 1018.0125
29.9700 1029.3100
29.9800 983.3325
29.9900 985.9975
30.0000 1010.0275
30.0100 929.3625
30.0200 882.0150
30.0300 877.1875
30.0400 984.2675
30.0500 794.7725
30.0600 733.3325
30.0700 742.4200
30.0800 846.1175
30.0900 790.9725
30.1000 689.7600
30.1100 758.9800
30.1200 675.6050
30.1300 774.4250
30.1400 653.9825
30.1500 497.4725
30.1600 472.9675
30.1700 553.7675
30.1800 597.4975
30.1900 562.9250
30.2000 512.9375
30.2100 480.2925
30.2200 648.7650
30.2300 621.0300
30.2400 472.7975
30.2500 550.0000
30.2600 554.8700
30.2700 615.4525
30.2800 595.1650
30.2900 528.5150
30.3000 475.0700
30.3100 588.1175
30.3200 644.0400
30.3300 567.8550
30.3400 585.7000
30.3500 619.0250
30.3600 653.5250
30.3700 708.1950
30.3800 814.3325
30.3900 787.9825
30.4000 844.2100
30.4100 764.3600
30.4200 734.4825
30.4300 758.0175
30.4400 865.5250
30.4500 846.5900
30.4600 806.7950
30.4700 905.6425
30.4800 975.4650
30.4900 859.9475
30.5000 763.3200
30.5100 716.6675
30.5200 717.7725
30.5300 732.2300
30.5400 715.5675
30.5500 702.1875
30.5600 725.7025
30.5700 616.6675
30.5800 624.2375
30.5900 725.7925
30.6000 615.5925
30.6100 604.2750
30.6200 659.2150
30.6300 551.0600
30.6400 570.8900
30.6500 628.0750
30.6600 547.9050
30.6700 518.7525
30.6800 555.1950
30.6900 632.2975
30.7000 615.6350
30.7100 606.1575
30.7200 701.0225
30.7300 712.5950
30.7400 653.0400
30.7500 710.0925
30.7600 868.6775
30.7700 892.9950
30.7800 781.3400
30.7900 750.9925
30.8000 763.7025
30.8100 718.6350
30.8200 744.1225
30.8300 651.9500
30.8400 690.1300
30.8500 799.0325
30.8600 776.5950
30.8700 659.9600
30.8800 545.2300
30.8900 471.4150
30.9000 553.7825
30.9100 619.4900
30.9200 664.7925
30.9300 632.4000
30.9400 613.8825
30.9500 558.3475
30.9600 416.6675
30.9700 425.8225
30.9800 579.6875
30.9900 516.6675
31.0000 521.1825
31.0100 599.1025
31.0200 582.4400
31.0300 566.6675
31.0400 559.5800
31.0500 436.8600
31.0600 502.6325
31.0700 540.3950
31.0800 370.1425
31.0900 434.1975
31.1000 448.2800
31.1100 419.2350
31.1200 470.9250
31.1300 555.9325
31.1400 659.0775
31.1500 515.8275
31.1600 500.0000
31.1700 501.6600
31.1800 535.8125
31.1900 575.9350
31.2000 437.4225
31.2100 513.4125
31.2200 455.6650
31.2300 572.3025
31.2400 679.3300
31.2500 596.0175
31.2600 518.2525
31.2700 557.0925
31.2800 698.4325
31.2900 666.6675
31.3000 661.2400
31.3100 554.6250
31.3200 653.0675
31.3300 714.3800
31.3400 665.1500
31.3500 627.3025
31.3600 503.0000
31.3700 571.8850
31.3800 678.1450
31.3900 569.6150
31.4000 633.3325
31.4100 634.0625
31.4200 643.4825
31.4300 500.7200
31.4400 518.8125
31.4500 569.5125
31.4600 631.2125
31.4700 577.0075
31.4800 435.4300
31.4900 484.7225
31.5000 513.2150
31.5100 439.5050
31.5200 581.9700
31.5300 548.6450
31.5400 521.3775
31.5500 634.0025
31.5600 649.3350
31.5700 630.0325
31.5800 551.3125
31.5900 582.6825
31.6000 566.0200
31.6100 551.2875
31.6200 588.4450
31.6300 711.5900
31.6400 584.5950
31.6500 616.6675
31.6600 612.3125
31.6700 502.4700
31.6800 574.6400
31.6900 780.2875
31.7000 700.0000
31.7100 700.0000
31.7200 698.8075
31.7300 659.5625
31.7400 471.9575
31.7500 613.1650
31.7600 513.7700
31.7700 434.4825
31.7800 466.0950
31.7900 452.2650
31.8000 515.5425
31.8100 483.3325
31.8200 481.6725
31.8300 431.6850
31.8400 384.4250
31.8500 424.2400
31.8600 645.1700
31.8700 499.4675
31.8800 480.6925
31.8900 404.1925
31.9000 537.4900
31.9100 660.9975
31.9200 482.3100
31.9300 449.4925
31.9400 435.3425
31.9500 506.4775
31.9600 715.6775
31.9700 679.9050
31.9800 567.1525
31.9900 585.2575
32.0000 648.0925
32.0100 583.8050
32.0200 601.4050
32.0300 650.9275
32.0400 684.7125
32.0500 736.5225
32.0600 848.1950
32.0700 782.4400
32.0800 750.4425
32.0900 767.5450
32.1000 803.0400
32.1100 915.8075
32.1200 883.7600
32.1300 900.8425
32.1400 935.8375
32.1500 1032.0950
32.1600 982.1075
32.1700 928.4800
32.1800 734.5350
32.1900 784.5200
32.2000 830.9825
32.2100 732.1700
32.2200 681.8000
32.2300 620.8350
32.2400 799.2500
32.2500 761.4825
32.2600 534.7975
32.2700 600.3625
32.2800 619.1700
32.2900 731.5675
32.3000 645.1150
32.3100 416.6675
32.3200 423.1350
32.3300 728.6275
32.3400 500.9950
32.3500 550.6550
32.3600 584.3025
32.3700 632.6950
32.3800 599.0550
32.3900 550.6200
32.4000 581.4950
32.4100 482.1250
32.4200 418.4525
32.4300 517.8400
32.4400 581.0200
32.4500 452.5650
32.4600 601.4025
32.4700 682.7800
32.4800 649.4550
32.4900 619.8800
32.5000 814.0300
32.5100 650.2600
32.5200 668.4525
32.5300 781.5775
32.5400 667.4050
32.5500 715.4550
32.5600 632.8575
32.5700 601.8700
32.5800 734.0225
32.5900 782.4325
32.6000 717.3300
32.6100 765.1500
32.6200 649.3625
32.6300 602.0800
32.6400 766.2600
32.6500 733.3325
32.6600 731.5775
32.6700 583.7150
32.6800 616.1075
32.6900 566.6675
32.7000 565.2425
32.7100 434.0275
32.7200 501.8650
32.7300 682.1775
32.7400 566.0225
32.7500 498.7450
32.7600 366.6675
32.7700 366.5175
32.7800 350.7200
32.7900 433.1925
32.8000 417.4800
32.8100 516.0100
32.8200 434.0950
32.8300 533.2100
32.8400 515.9575
32.8500 417.2375
32.8600 500.4400
32.8700 567.3000
32.8800 666.1600
32.8900 583.4300
32.9000 599.2600
32.9100 467.1975
32.9200 566.9200
32.9300 617.7025
32.9400 832.1250
32.9500 566.0975
32.9600 433.2000
32.9700 400.4375
32.9800 516.5500
32.9900 483.4950
33.0000 533.2825
33.0100 516.6675
33.0200 516.8325
33.0300 583.3700
33.0400 599.9675
33.0500 583.2475
33.0600 533.2375
33.0700 466.6875
33.0800 483.3500
33.0900 500.0450
33.1000 566.6800
33.1100 600.0250
33.1200 749.9850
33.1300 899.9475
33.1400 933.3125
33.1500 999.9425
33.1600 983.3525
33.1700 916.7575
33.1800 916.6675
33.1900 833.4900
33.2000 1032.9025
33.2100 983.4525
33.2200 1199.4225
33.2300 1200.0000
33.2400 1067.0900
33.2500 1133.1050
33.2600 1183.1500
33.2700 1100.3300
33.2800 1232.7725
33.2900 1216.7400
33.3000 1216.6675
33.3100 1117.1650
33.3200 1000.6100
33.3300 983.4250
33.3400 867.3375
33.3500 833.5325
33.3600 684.2725
33.3700 716.4500
33.3800 716.6675
33.3900 832.5125
33.4000 651.3375
33.4100 650.0000
33.4200 699.6100
33.4300 468.5475
33.4400 532.7800
33.4500 682.0475
33.4600 617.2550
33.4700 534.0900
33.4800 533.3325
33.4900 566.3475
33.5000 533.6625
33.5100 467.3400
33.5200 532.6425
33.5300 549.8225
33.5400 434.6050
33.5500 433.3325
33.5600 466.2875
33.5700 466.6675
33.5800 516.0700
33.5900 434.3475
33.6000 383.9550
33.6100 432.7000
33.6200 515.5875
33.6300 566.0075
33.6400 418.6850
33.6500 383.7900
33.6600 465.5025
33.6700 565.2425
33.6800 451.6900
33.6900 433.5800
33.7000 384.0825
33.7100 448.9825
33.7200 532.0400
33.7300 467.7175
33.7400 450.2675
33.7500 515.5800
33.7600 516.6675
33.7700 516.6675
33.7800 500.2850
33.7900 549.1325
33.8000 550.0000
33.8100 484.5225
33.8200 417.8725
33.8300 498.4700
33.8400 450.9300
33.8500 515.4075
33.8600 631.1025
33.8700 600.6450
33.8800 567.3225
33.8900 599.3375
33.9000 534.6775
33.9100 419.0475
33.9200 432.9875
33.9300 759.6900
33.9400 603.5325
33.9500 583.6900
33.9600 518.1125
33.9700 451.4650
33.9800 515.1850
33.9900 663.2950
34.0000 731.8175
34.0100 635.6325
34.0200 698.4500
34.0300 846.4725
34.0400 768.6475
34.0500 864.2650
34.0600 801.6200
34.0700 800.0000
34.0800 881.2675
34.0900 964.5775
34.1000 1031.6450
34.1100 1114.5350
34.1200 1084.1950
34.1300 1018.4050
34.1400 854.3925
34.1500 850.0000
34.1600 931.0950
34.1700 900.9050
34.1800 916.2100
34.1900 916.6675
34.2000 819.4550
34.2100 687.0875
34.2200 602.3675
34.2300 551.4325
34.2400 647.1075
34.2500 617.6400
34.2600 535.7875
34.2700 581.8475
34.2800 518.6650
34.2900 565.1550
34.3000 550.5075
34.3100 501.5375
34.3200 483.8500
34.3300 515.6250
34.3400 484.3825
34.3500 515.6075
34.3600 419.8700
34.3700 481.1800
34.3800 499.4575
34.3900 467.7600
34.4000 353.8575
34.4100 511.1150
34.4200 581.0950
34.4300 631.6425
34.4400 552.8400
34.4500 566.0950
34.4600 534.4875
34.4700 629.8475
34.4800 601.1700
34.4900 616.0775
34.5000 584.5225
34.5100 535.1275
34.5200 501.2050
34.5300 500.0000
34.5400 500.0000
34.5500 516.0500
34.5600 548.7600
34.5700 533.9575
34.5800 613.5250
34.5900 552.5300
34.6000 550.0000
34.6100 598.0750
34.6200 567.9575
34.6300 630.7325
34.6400 633.3325
34.6500 665.3500
34.6600 570.6450
34.6700 518.6675
34.6800 580.6475
34.6900 663.2875
34.7000 666.6675
34.7100 730.5950
34.7200 621.4875
34.7300 632.6400
34.7400 729.1475
34.7500 701.4025
34.7600 684.0400
34.7700 731.2025
34.7800 781.1900
34.7900 894.9675
34.8000 836.2275
34.8100 817.3950
34.8200 880.4050
34.8300 787.7500
34.8400 799.2600
34.8500 927.3750
34.8600 742.3250
34.8700 860.6375
34.8800 803.0325
34.8900 943.1400
34.9000 870.5000
34.9100 675.9175
34.9200 730.2325
34.9300 701.5600
34.9400 588.8200
34.9500 519.8200
34.9600 564.2900
34.9700 677.7575
34.9800 619.8700
34.9900 569.0825
35.0000 598.3800
35.0100 568.2950
35.0200 487.4250
35.0300 467.4900
35.0400 419.1475
35.0500 384.9950
35.0600 414.9950
35.0700 448.3200
35.0800 513.2900
35.0900 437.5750
35.1000 401.7050
35.1100 431.6200
35.1200 354.3075
35.1300 318.3975
35.1400 458.8350
35.1500 482.4600
35.1600 483.3325
35.1700 562.2500
35.1800 550.8875
35.1900 486.9000
35.2000 451.7925
35.2100 497.3000
35.2200 358.1425
35.2300 428.7875
35.2400 527.8525
35.2500 438.8400
35.2600 464.8225
35.2700 513.8875
35.2800 532.4025
35.2900 517.6025
35.3000 469.4850
35.3100 466.6675
35.3200 403.7925
35.3300 384.2850
35.3400 399.0425
35.3500 447.1175
35.3600 402.8950
35.3700 352.9075
35.3800 381.3850
35.3900 477.4650
35.4000 451.9650
35.4100 434.3200
35.4200 464.6850
35.4300 560.6925
35.4400 598.0000
35.4500 584.3375
35.4600 739.9150
35.4700 750.0000
35.4800 718.7000
35.4900 763.6025
35.5000 797.9475
35.5100 846.9100
35.5200 896.8975
35.5300 853.1175
35.5400 959.3650
35.5500 904.1900
35.5600 900.0000
35.5700 1009.2725
35.5800 1094.6975
35.5900 959.5825
35.6000 934.4025
35.6100 980.1125
35.6200 998.9225
35.6300 937.6625
35.6400 886.5925
35.6500 805.4550
35.6600 784.4275
35.6700 721.0650
35.6800 810.0450
35.6900 676.6400
35.7000 620.0050
35.7100 803.2650
35.7200 630.1200
35.7300 678.8325
35.7400 636.7225
35.7500 617.8000
35.7600 492.4400
35.7700 452.2850
35.7800 481.0400
35.7900 529.8800
35.8000 471.2900
35.8100 451.1600
35.8200 465.5025
35.8300 497.6625
35.8400 561.9750
35.8500 628.6225
35.8600 571.3950
35.8700 504.7450
35.8800 592.8575
35.8900 723.7750
35.9000 717.8650
35.9100 639.3500
35.9200 617.8750
35.9300 678.4850
35.9400 621.5325
35.9500 601.2200
35.9600 847.0625
35.9700 1098.2225
35.9800 1085.8000
35.9900 975.3350
36.0000 1120.9075
36.0100 1040.8150
36.0200 1094.9950
36.0300 1100.0000
36.0400 1007.5600
36.0500 969.1950
36.0600 1043.6575
36.0700 1142.3625
36.0800 1088.4425
36.0900 1175.6425
36.1000 983.3850
36.1100 966.6675
36.1200 812.9475
36.1300 999.7775
36.1400 786.2175
36.1500 705.2300
36.1600 838.1900
36.1700 896.0500
36.1800 823.2700
36.1900 770.6425
36.2000 689.9800
36.2100 622.0025
36.2200 647.3225
36.2300 680.6475
36.2400 729.2925
36.2500 672.0725
36.2600 636.0450
36.2700 633.3325
36.2800 755.7525
36.2900 766.6675
36.3000 705.4925
36.3100 730.5775
36.3200 733.3325
36.3300 886.1400
36.3400 838.8950
36.3500 970.7800
36.3600 998.6000
36.3700 984.7375
36.3800 907.0400
36.3900 961.0175
36.4000 966.6675
36.4100 875.1925
36.4200 866.6675
36.4300 760.0075
36.4400 871.8625
36.4500 898.5625
36.4600 915.2250
36.4700 840.5675
36.4800 909.4100
36.4900 840.6125
36.5000 802.9200
36.5100 815.2025
36.5200 695.0825
36.5300 546.5925
36.5400 654.8475
36.5500 727.4050
36.5600 535.9875
36.5700 455.9625
36.5800 480.3425
36.5900 544.0025
36.6000 519.6750
36.6100 440.8725
36.6200 372.7150
36.6300 351.5175
36.6400 456.0200
36.6500 496.9500
36.6600 424.3150
36.6700 507.4625
36.6800 592.3075
36.6900 524.3800
36.7000 486.4275
36.7100 422.8725
36.7200 537.5525
36.7300 444.2550
36.7400 372.9250
36.7500 472.3500
36.7600 407.8675
36.7700 490.5325
36.7800 484.9150
36.7900 483.3325
36.8000 407.9550
36.8100 445.2150
36.8200 389.7325
36.8300 338.1450
36.8400 408.6250
36.8500 491.9375
36.8600 454.8500
36.8700 419.9100
36.8800 431.7075
36.8900 448.3700
36.9000 434.9675
36.9100 403.2775
36.9200 430.0475
36.9300 478.3900
36.9400 408.2600
36.9500 430.0200
36.9600 463.3450
36.9700 526.6725
36.9800 428.3525
36.9900 476.6375
37.0000 543.2875
37.0100 594.9525
37.0200 585.0200
37.0300 643.2350
37.0400 620.0575
37.0500 646.6000
37.0600 575.1900
37.0700 641.4550
37.0800 650.0000
37.0900 635.0500
37.1000 558.6100
37.1100 460.3575
37.1200 509.7450
37.1300 591.3250
37.1400 629.8550
37.1500 558.7200
37.1600 579.8375
37.1700 434.1925
37.1800 446.4850
37.1900 420.1900
37.2000 491.1725
37.2100 455.3100
37.2200 450.0000
37.2300 420.2250
37.2400 416.6675
37.2500 476.1825
37.2600 527.9575
37.2700 473.8525
37.2800 407.2025
37.2900 370.2775
37.3000 440.9525
37.3100 375.7350
37.3200 307.2725
37.3300 433.5975
37.3400 479.6800
37.3500 379.4850
37.3600 351.8350
37.3700 438.9600
37.3800 583.4000
37.3900 555.5475
37.4000 550.0000
37.4100 490.7650
37.4200 498.1375
37.4300 500.0000
37.4400 514.7950
37.4500 561.0400
37.4600 744.1125
37.4700 751.8850
37.4800 705.6650
37.4900 700.0000
37.5000 744.3100
37.5100 779.5300
37.5200 724.2900
37.5300 657.6400
37.5400 664.7525
37.5500 681.4150
37.5600 624.3600
37.5700 616.6675
37.5800 631.4000
37.5900 618.6025
37.6000 513.5875
37.6100 603.0500
37.6200 631.3825
37.6300 706.8950
37.6400 672.5425
37.6500 578.4450
37.6600 551.9675
37.6700 696.9500
37.6800 760.7375
37.6900 546.3725
37.7000 501.9850
37.7100 632.0975
37.7200 664.6725
37.7300 637.3300
37.7400 677.3250
37.7500 624.6950
37.7600 572.7000
37.7700 566.6675
37.7800 654.5475
37.7900 652.0250
37.8000 606.0875
37.8100 570.7325
37.8200 595.9250
37.8300 746.2475
37.8400 664.3250
37.8500 664.6150
37.8600 578.9975
37.8700 493.6300
37.8800 512.5400
37.8900 487.4700
37.9000 410.3625
37.9100 400.0000
37.9200 400.0000
37.9300 341.6775
37.9400 362.4850
37.9500 366.6675
37.9600 410.3700
37.9700 372.9775
37.9800 381.2250
37.9900 383.3325
38.0000 368.7825
38.0100 366.6675
38.0200 410.2900
38.0300 358.5200
38.0400 306.4025
38.0500 314.5275
38.0600 389.2850
38.0700 327.4050
38.0800 345.6950
38.0900 379.0200
38.1000 397.8400
38.1100 327.4925
38.1200 403.6500
38.1300 503.6225
38.1400 458.7125
38.1500 450.0000
38.1600 464.4800
38.1700 437.7175
38.1800 360.9800
38.1900 378.9325
38.2000 354.4100
38.2100 306.6275
38.2200 343.3600
38.2300 350.0000
38.2400 335.5550
38.2500 318.8925
38.2600 316.6675
38.2700 359.9600
38.2800 381.0925
38.2900 368.9100
38.3000 308.9950
38.3100 314.4125
38.3200 359.8925
38.3300 395.4750
38.3400 385.6000
38.3500 397.7300
38.3600 414.3925
38.3700 431.0525
38.3800 462.0975
38.3900 509.8000
38.4000 531.0400
38.4100 447.1175
38.4200 519.5225
38.4300 648.2150
38.4400 853.2950
38.4500 553.2475
38.4600 485.6525
38.4700 555.0475
38.4800 695.7100
38.4900 616.3300
38.5000 628.6600
38.5100 704.9575
38.5200 716.6675
38.5300 702.3500
38.5400 628.4400
38.5500 702.5100
38.5600 702.3650
38.5700 599.9100
38.5800 711.9800
38.5900 747.6225
38.6000 750.0000
38.6100 692.8775
38.6200 497.7400
38.6300 566.5700
38.6400 511.9950
38.6500 685.4200
38.6600 702.4075
38.6700 600.2200
38.6800 597.5825
38.6900 585.7550
38.7000 497.8875
38.7100 526.0425
38.7200 490.6375
38.7300 483.3325
38.7400 469.1100
38.7500 480.8850
38.7600 383.8325
38.7700 281.4075
38.7800 394.5175
38.7900 459.2700
38.8000 480.8625
38.8100 426.5650
38.8200 345.7275
38.8300 375.8825
38.8400 496.7650
38.8500 530.8400
38.8600 462.4825
38.8700 393.3375
38.8800 340.8500
38.8900 361.6475
38.9000 394.9725
38.9100 442.4450
38.9200 421.7125
38.9300 402.5275
38.9400 513.0775
38.9500 420.2925
38.9600 414.1250
38.9700 430.7875
38.9800 475.6850
38.9900 539.7825
39.0000 507.6750
39.0100 373.0675
39.0200 392.2975
39.0300 428.1900
39.0400 531.9650
39.0500 437.3125
39.0600 430.7475
39.0700 447.4100
39.0800 506.2900
39.0900 671.4150
39.1000 615.6175
39.1100 585.9400
39.1200 695.7725
39.1300 618.3150
39.1400 656.1825
39.1500 652.6250
39.1600 664.0375
39.1700 666.6675
39.1800 666.6675
39.1900 680.6900
39.2000 669.3150
39.2100 610.6075
39.2200 529.9475
39.2300 558.6850
39.2400 454.6550
39.2500 475.3250
39.2600 539.3050
39.2700 550.0000
39.2800 563.9825
39.2900 622.5825
39.3000 675.2575
39.3100 585.5400
39.3200 482.8700
39.3300 494.5900
39.3400 472.0850
39.3500 522.4775
39.3600 449.6450
39.3700 461.2200
39.3800 494.5450
39.3900 388.5225
39.4000 366.6675
39.4100 380.5925
39.4200 411.1750
39.4300 458.4175
39.4400 536.2300
39.4500 563.9075
39.4600 497.1475
39.4700 455.5350
39.4800 450.0000
39.4900 366.6575
39.5000 433.3150
39.5100 352.8300
39.5200 319.4575
39.5300 330.5400
39.5400 333.3325
39.5500 430.3775
39.5600 366.8450
39.5700 322.2900
39.5800 413.6175
39.5900 433.3325
39.6000 419.4925
39.6100 361.3200
39.6200 363.8325
39.6300 435.8050
39.6400 491.4700
39.6500 417.0875
39.6600 455.2575
39.6700 494.2875
39.6800 417.1675
39.6900 413.8000
39.7000 499.4475
39.7100 433.9125
39.7200 485.6050
39.7300 486.2175
39.7400 552.2275
39.7500 552.8925
39.7600 522.4600
39.7700 571.7275
39.7800 542.0500
39.7900 657.1425
39.8000 683.3325
39.8100 752.0700
39.8200 725.4375
39.8300 716.6675
39.8400 744.1350
39.8500 722.5400
39.8600 744.1175
39.8700 900.9275
39.8800 782.4550
39.8900 804.8475
39.9000 940.0325
39.9100 761.1250
39.9200 702.9675
39.9300 686.3050
39.9400 587.5075
39.9500 552.9825
39.9600 645.7625
39.9700 666.6675
39.9800 666.6675
39.9900 666.6675
40.0000 666.6675
